time (s)	magX	magY	magZ
5846.071423	-350.564606	-192.797775	-525.727600
5846.074759	-349.161865	-192.680878	-538.819397
5846.078094	-348.168304	-192.330215	-553.898254
5846.081435	-346.882538	-191.687317	-568.451172
5846.084792	-345.362946	-191.044418	-582.419617
5846.088102	-342.382233	-190.401520	-597.264709
5846.091444	-339.576843	-189.583282	-610.940918
5846.094749	-336.829926	-188.531265	-626.253662
5846.098088	-333.323212	-187.011673	-642.384521
5846.101413	-329.290466	-185.199875	-655.826965
5846.104322	-324.731720	-183.797195	-671.665649
5846.107653	-319.413208	-181.810059	-685.926331
5846.111010	-313.451782	-179.998245	-700.420776
5846.114323	-307.490356	-177.543549	-715.674988
5846.117654	-300.944458	-174.855057	-729.935669
5846.120988	-294.573914	-172.049667	-743.670349
5846.124320	-286.566925	-168.601410	-757.171204
5846.127654	-278.676788	-165.679123	-770.555237
5846.130985	-270.202209	-162.113968	-784.231445
5846.134319	-261.669189	-157.789017	-797.790771
5846.137654	-251.791931	-153.288712	-810.940918
5846.140997	-241.797760	-148.729980	-822.746887
5846.144324	-232.446533	-144.405029	-834.903503
5846.147654	-221.108124	-138.618927	-846.183472
5846.150993	-210.295746	-132.949738	-856.469910
5846.154349	-198.723541	-126.812973	-867.516052
5846.157658	-187.034485	-121.319115	-876.633545
5846.160989	-174.994751	-114.247223	-886.510742
5846.164321	-162.896561	-107.409119	-895.219116
5846.167647	-149.395676	-100.921677	-902.700134
5846.170984	-136.362350	-93.732903	-909.421326
5846.174318	-122.919937	-86.427231	-915.324280
5846.177653	-108.834595	-78.303329	-921.110413
5846.180984	-95.158386	-70.880768	-924.734009
5846.184314	-80.956169	-62.464642	-930.520142
5846.187650	-66.052597	-54.223850	-931.981262
5846.190981	-51.207481	-46.801285	-935.663330
5846.194320	-36.654587	-38.560493	-937.124451
5846.197671	-22.160137	-30.202808	-937.533569
5846.200997	-7.665691	-22.137346	-937.182922
5846.204320	7.705437	-14.013443	-936.247803
5846.207649	23.018120	-6.123320	-935.312622
5846.210984	38.097019	2.117475	-932.448853
5846.214314	53.000587	10.416716	-929.351257
5846.217651	68.663940	17.956165	-925.902954
5846.220976	82.690826	24.911163	-921.402649
5846.224313	97.652832	32.333721	-915.441223
5846.227645	112.322617	39.288719	-910.414978
5846.230982	126.232613	45.717709	-903.459900
5846.234316	140.376389	52.322033	-896.037415
5846.237651	153.643494	58.751022	-888.147278
5846.240998	167.787262	65.355347	-878.971375
5846.244311	180.645233	71.082993	-870.204529
5846.247649	193.561661	76.927536	-861.320862
5846.250977	205.659851	82.888954	-851.385132
5846.254307	217.874924	88.090599	-839.462280
5846.257642	229.505554	93.409119	-828.825256
5846.260984	240.201050	97.850967	-817.311462
5846.264306	250.662766	102.760376	-805.973083
5846.267643	260.773804	107.494453	-792.647522
5846.270973	270.943298	111.877853	-780.490906
5846.274307	279.651672	116.553474	-767.691345
5846.277639	287.892456	120.644653	-754.599609
5846.280979	295.957947	125.203400	-741.916992
5846.284333	303.555817	129.002335	-727.831665
5846.287641	310.627716	132.684402	-714.915222
5846.290978	316.764465	136.307999	-701.239014
5846.294304	323.018127	140.106949	-687.504395
5846.297637	328.862640	143.087677	-673.535889
5846.300972	333.888977	146.302170	-659.216858
5846.304305	338.739929	149.107544	-644.780823
5846.307635	342.421967	151.036240	-631.338379
5846.310968	346.688477	153.607834	-617.253052
5846.314308	349.493866	156.471664	-603.810608
5846.317658	352.766815	158.634140	-590.543518
5846.320978	355.338379	160.387497	-576.925720
5846.324309	357.325531	162.783752	-563.483337
5846.327677	359.604919	163.894211	-549.514832
5846.330966	360.540039	165.296906	-536.598450
5846.334307	362.410278	166.758041	-523.272949
5846.337635	362.819427	167.985397	-509.772095
5846.340972	363.462311	168.686737	-497.206329
5846.344297	363.871399	169.797195	-483.880798
5846.347634	364.338989	170.498535	-471.665680
5846.350963	363.462311	170.264755	-459.099945
5846.354302	363.053192	170.381653	-447.527771
5846.357638	362.176483	170.498535	-435.780273
5846.360966	361.416718	169.797195	-423.915833
5846.364297	360.949158	169.797195	-412.811249
5846.367638	359.955566	168.803619	-402.174164
5846.370984	357.968445	168.277618	-391.127991
5846.374291	356.565735	167.926941	-379.672729
5846.377634	355.279968	166.991821	-369.620117
5846.380969	353.643494	165.647583	-359.216827
5846.384300	351.305695	165.063126	-349.807159
5846.387629	349.318542	163.777328	-340.280548
5846.390962	348.032715	162.725311	-330.111053
5846.394294	345.811798	161.381073	-320.935120
5846.397630	343.123322	160.387497	-312.285217
5846.400960	340.493286	159.043259	-304.278198
5846.404295	338.272369	158.049683	-296.329651
5846.407632	335.408539	156.413208	-287.562836
5846.410962	332.544708	155.536530	-278.328461
5846.414322	330.206909	153.900070	-271.198120
5846.417628	327.518433	153.081833	-264.593811
5846.420962	323.485687	151.679138	-257.814148
5846.424294	321.147888	150.393341	-249.865570
5846.429002	315.712463	147.880188	-235.955597
5846.432325	312.088837	145.951492	-229.877258
5846.435613	309.108124	145.074814	-223.623627
5846.438945	305.718292	143.672119	-217.662201
5846.442318	302.796051	143.029221	-211.817657
5846.445216	299.230865	141.684982	-205.914673
5846.448583	296.659241	140.516083	-200.303925
5846.451864	293.386322	139.522507	-194.517822
5846.455134	290.814758	138.762711	-189.199310
5846.458507	287.191101	137.418472	-184.465210
5846.461802	283.684387	136.366455	-178.971344
5846.465160	280.879028	135.606659	-174.704834
5846.468490	278.774963	134.028641	-170.146118
5846.471871	275.385132	132.859726	-165.704285
5846.475206	272.696655	132.216843	-161.613098
5846.478469	269.949707	130.755707	-157.112793
5846.481821	267.787231	129.411453	-153.080063
5846.485142	264.572754	128.242554	-149.339569
5846.488487	262.234955	127.190536	-146.008179
5846.491818	259.663330	126.372307	-141.800110
5846.495228	256.799530	124.677383	-137.767380
5846.498551	253.818832	123.859146	-134.611328
5846.501398	251.597885	122.573357	-131.221497
5846.504712	249.201645	121.813560	-128.533020
5846.508046	246.630035	119.592636	-125.493858
5846.511379	244.526016	118.774406	-122.220924
5846.514709	241.486847	117.371719	-119.473991
5846.518041	240.493286	115.793694	-117.019287
5846.521378	237.512573	115.443016	-114.623032
5846.524740	235.934540	113.689667	-111.817650
5846.528057	233.655167	112.637642	-108.544708
5846.531393	231.258911	111.644066	-106.440674
5846.534751	229.154877	110.533607	-104.453537
5846.538057	227.050842	109.949150	-101.589714
5846.541380	225.472824	108.721809	-99.777908
5846.544748	223.485672	107.728233	-97.440094
5846.548038	221.732330	106.793106	-95.686737
5846.551372	219.511398	106.033318	-93.115135
5846.554709	217.641144	104.922859	-91.011101
5846.558050	216.180008	103.520172	-89.199295
5846.561381	214.368210	103.052605	-87.270599
5846.564724	212.673294	102.000587	-86.160141
5846.567618	210.627701	102.351257	-84.114548
5846.570942	209.341904	101.123909	-81.952072
5846.574283	207.997665	100.422562	-80.841614
5846.577616	205.718292	100.422562	-79.088249
5846.580944	204.783173	99.487442	-77.568672
5846.584275	203.146698	98.552315	-76.808884
5846.587648	201.451782	98.435425	-75.113968
5846.590946	200.165985	98.552315	-74.120399
5846.594283	198.646408	97.149628	-72.951492
5846.597605	198.120392	96.272942	-72.425484
5846.600944	196.133270	96.506721	-71.022797
5846.604277	195.373474	96.156052	-69.620102
5846.607609	193.970779	95.454704	-69.210983
5846.610943	193.152542	95.045593	-68.042084
5846.614271	191.516068	95.045593	-67.048508
5846.617610	190.697845	94.987144	-66.522507
5846.620944	189.938049	94.110466	-65.236702
5846.624299	188.243134	94.052017	-64.126244
5846.627603	187.600235	93.876686	-63.600235
5846.630969	186.665115	93.876686	-63.892460
5846.634273	186.080658	93.058449	-63.191116
5846.637611	185.379303	92.357101	-61.262421
5846.640939	184.093521	92.181770	-60.677963
5846.644270	183.859741	91.655762	-60.794853
5846.647600	183.041489	91.421974	-59.742840
5846.650940	182.515488	91.655762	-58.807716
5846.654267	181.872589	91.129753	-58.457043
5846.657606	181.989487	90.720634	-58.106369
5846.660940	180.937469	90.253067	-57.405025
5846.664267	180.645233	90.369957	-56.820572
5846.667600	179.710114	90.136177	-56.411453
5846.670937	179.593231	89.668617	-56.937462
5846.674294	180.119232	89.317947	-55.827003
5846.677600	179.125656	88.791939	-55.885445
5846.680938	178.833435	88.733490	-54.716537
5846.684280	178.307419	88.675049	-55.300995
5846.687597	178.482773	88.616600	-54.774986
5846.690936	177.664520	88.207489	-54.424313
5846.694262	177.839859	88.149040	-54.190529
5846.697601	177.430740	88.149040	-54.073639
5846.700933	177.430740	88.265930	-54.424313
5846.704264	177.313843	88.032150	-54.424313
5846.707600	177.313843	88.090599	-53.781414
5846.710928	177.372299	87.856812	-53.313850
5846.714264	177.021637	88.207489	-54.190529
5846.717623	177.372299	88.499710	-54.015198
5846.720933	177.255417	88.733490	-54.599648
5846.724268	177.021637	88.908829	-54.599648
5846.727597	177.138519	88.967270	-54.482758
5846.730935	177.722977	88.908829	-54.482758
5846.734258	177.839859	90.019287	-54.658096
5846.737592	177.664520	89.843956	-55.476330
5846.740941	177.781403	90.194626	-54.716537
5846.744267	178.658096	90.603745	-56.060783
5846.747596	178.658096	90.603745	-56.703682
5846.750932	178.716553	91.363533	-56.703682
5846.754261	179.593231	91.597313	-57.054352
5846.757594	179.300995	92.473991	-56.762127
5846.760949	180.703690	92.415550	-57.288136
5846.764257	180.528351	93.233788	-58.807716
5846.767594	180.820572	93.000000	-58.807716
5846.770926	181.638809	93.584457	-59.216831
5846.774257	183.041489	93.993576	-59.625946
5846.777586	183.567505	94.344246	-60.268845
5846.780921	183.742844	94.519585	-61.145527
5846.784251	185.145523	95.454704	-61.671535
5846.787585	185.496201	95.162483	-62.139099
5846.790922	186.548218	96.039162	-62.548218
5846.794253	187.249557	96.039162	-63.834015
5846.797592	187.775574	97.208069	-65.002922
5846.800947	188.652252	97.967857	-65.295151
5846.804292	189.821152	98.260086	-66.230270
5846.807583	190.990067	98.552315	-66.990067
5846.810935	192.100525	99.136765	-68.158966
5846.814251	192.626526	99.253654	-68.860313
5846.817587	193.970779	99.838112	-69.970779
5846.820921	195.198120	100.188782	-71.431915
5846.824256	195.724136	100.890129	-72.483932
5846.827587	197.594391	101.708359	-72.893051
5846.830919	198.938644	102.234367	-74.237289
5846.834248	199.698425	102.701927	-75.523087
5846.837584	201.159561	104.221512	-77.860901
5846.840921	203.205139	104.221512	-78.211571
5846.844251	204.198715	105.098190	-79.438919
5846.847597	205.952072	105.682648	-81.250732
5846.850923	207.413208	107.260674	-83.646988
5846.854252	208.815903	108.020462	-85.809471
5846.857587	210.160141	109.247803	-87.153709
5846.860924	211.913498	109.540039	-88.497955
5846.864251	213.257751	110.884277	-91.186440
5846.867584	215.244888	112.403862	-92.822906
5846.870914	216.881348	112.754539	-94.459381
5846.874245	217.991821	114.098778	-96.271187
5846.877581	220.154297	115.150787	-98.433662
5846.880915	221.907654	116.378143	-100.128578
5846.884249	223.193451	117.956161	-102.758614
5846.888943	227.167740	121.112221	-108.369377
5846.892299	229.563995	122.398026	-110.298065
5846.895608	231.375809	123.450035	-112.577438
5846.898900	233.772064	124.852722	-115.441261
5846.902207	235.408539	126.722969	-118.538864
5846.905533	237.454117	128.067200	-120.935127
5846.908444	239.791931	128.826996	-124.091171
5846.911785	241.662201	130.755707	-126.896553
5846.915180	243.941559	131.749283	-130.461731
5846.918496	246.045593	133.093521	-134.319107
5846.921767	248.850967	134.729980	-136.832245
5846.925086	251.013458	135.665115	-141.157227
5846.928436	253.760376	137.184692	-144.430145
5846.931779	255.981308	138.236710	-148.229095
5846.935207	257.968445	139.814743	-152.787842
5846.938507	260.481598	141.275864	-156.469910
5846.941824	263.520752	142.678543	-160.444183
5846.945094	265.916992	144.431915	-165.645813
5846.948418	268.839264	145.834610	-169.853882
5846.951750	271.352417	146.886612	-173.594391
5846.955113	273.924011	148.230865	-178.153137
5846.958459	276.904724	149.750443	-183.004089
5846.961816	279.417877	151.796036	-188.614838
5846.964684	281.638824	153.257156	-193.874939
5846.967996	284.444214	155.185852	-198.784332
5846.971341	286.840454	156.530090	-203.109283
5846.974668	289.412048	158.108124	-210.356506
5846.978031	293.152557	160.095261	-216.142609
5846.981330	295.081238	161.731735	-221.694916
5846.984663	297.419067	163.309769	-228.123901
5846.988000	299.990662	165.180023	-234.260681
5846.991343	302.971375	167.342499	-239.871429
5846.994705	305.484528	169.095856	-247.177094
5846.998018	307.471649	171.375214	-254.774994
5847.001358	309.926361	173.011688	-261.262421
5847.004658	312.614868	174.648163	-269.269440
5847.007993	315.478668	177.102859	-276.049072
5847.011321	317.232025	179.323792	-283.120972
5847.014656	319.803619	181.077148	-290.777313
5847.018002	321.264740	183.707199	-299.777924
5847.020935	323.602570	185.402115	-307.843384
5847.024232	325.940369	187.213913	-316.259491
5847.027568	327.927521	188.441269	-325.493866
5847.030894	329.973114	190.895966	-334.786682
5847.034235	331.025116	192.824661	-344.196381
5847.037569	332.486267	194.519577	-353.606079
5847.040894	334.414978	196.097610	-363.775574
5847.044291	335.642334	197.967850	-372.951477
5847.047558	336.986542	199.370544	-383.939209
5847.050893	338.097046	200.890121	-394.926971
5847.054233	338.798370	202.000580	-405.797791
5847.057562	339.207489	203.403290	-415.149048
5847.060896	340.960846	204.922852	-427.714813
5847.064258	341.019287	205.916428	-438.760986
5847.067559	341.428406	206.559326	-450.742279
5847.070893	341.895966	207.202225	-462.840454
5847.074226	341.019287	207.903580	-474.529541
5847.077562	340.668610	208.429581	-487.387482
5847.080891	339.675049	208.546478	-499.427246
5847.084222	338.564606	208.488022	-512.402100
5847.087560	337.220337	208.663345	-525.435425
5847.090889	336.051422	208.488022	-538.001160
5847.094224	333.830505	208.195786	-551.385132
5847.097553	331.843353	208.020447	-564.710632
5847.100892	329.505554	207.260666	-577.159546
5847.104224	326.933960	206.500885	-590.835754
5847.107603	323.251892	205.741104	-604.511963
5847.110892	319.336060	204.396851	-617.019287
5847.114227	314.952667	203.286392	-630.637024
5847.117561	310.569275	202.175919	-644.313232
5847.120889	305.484528	200.364120	-656.937439
5847.124226	300.575104	199.312103	-671.315002
5847.127557	294.905914	197.558746	-684.523621
5847.130893	287.132690	195.454712	-697.732300
5847.134220	281.346588	193.000000	-709.947388
5847.137549	274.274689	191.129745	-722.630005
5847.140889	266.209229	188.499710	-735.897095
5847.144223	258.202209	185.635895	-748.813538
5847.147555	249.318542	182.538284	-758.457031
5847.150896	239.616608	179.849792	-771.607178
5847.154215	230.440689	175.875519	-782.185852
5847.157552	220.972534	172.661026	-793.874939
5847.160892	210.335480	169.037399	-805.096436
5847.164276	198.763290	165.238449	-815.090576
5847.167554	187.483337	161.205734	-825.961365
5847.170887	175.618942	156.179428	-835.137390
5847.174217	163.812988	151.737579	-844.780823
5847.177555	151.597900	146.477493	-853.898254
5847.180884	138.856812	141.100525	-861.729980
5847.184220	125.823502	135.489777	-870.087646
5847.187554	112.147285	129.411453	-877.451782
5847.190886	98.704849	123.157799	-883.296326
5847.194248	84.911751	116.670372	-890.251282
5847.197546	70.767975	109.540039	-895.394531
5847.200887	56.682644	102.935707	-900.946777
5847.204216	42.305084	95.922272	-904.395081
5847.207544	28.044418	88.324379	-907.668030
5847.210882	14.017534	81.194038	-910.531799
5847.214213	-0.243134	74.005264	-912.226746
5847.217543	-14.854473	65.998245	-914.272278
5847.220884	-29.816475	58.049679	-914.915283
5847.224275	-43.784920	49.750439	-914.798340
5847.227542	-58.162476	41.158970	-914.213867
5847.230881	-72.247810	33.853302	-912.460510
5847.234214	-86.800705	25.320280	-909.538269
5847.237550	-100.301575	18.306837	-906.323792
5847.240878	-113.919342	10.358270	-902.758606
5847.244213	-127.127991	1.942139	-899.251831
5847.247548	-140.804214	-5.538867	-893.290405
5847.250875	-154.363525	-13.078316	-887.095276
5847.254208	-166.695496	-20.150206	-880.432495
5847.257541	-179.611908	-27.222092	-874.412659
5847.260878	-191.827011	-34.235535	-865.002930
5847.264207	-202.814713	-40.664524	-857.521912
5847.267541	-214.796021	-46.918175	-848.345947
5847.270876	-225.725311	-53.931618	-838.760925
5847.274205	-236.537689	-60.009933	-828.591431
5847.277539	-246.940979	-65.912910	-818.889526
5847.280876	-257.110474	-71.348328	-807.726501
5847.284246	-266.695496	-77.251312	-795.745178
5847.287545	-276.338989	-82.043831	-783.939209
5847.290869	-284.696655	-86.777908	-771.899475
5847.294204	-292.937469	-91.862656	-758.749268
5847.297543	-300.652252	-96.246048	-747.410889
5847.300876	-308.016357	-100.804794	-734.085327
5847.304208	-314.971375	-104.954407	-721.052002
5847.307535	-321.926361	-109.162468	-708.252502
5847.310903	-327.537109	-112.844536	-693.465820
5847.314206	-333.147888	-116.234360	-680.724731
5847.317533	-337.881927	-120.500870	-666.464050
5847.320868	-342.206909	-123.189362	-653.255371
5847.324203	-346.298065	-126.754532	-639.286926
5847.327537	-349.804810	-129.735245	-624.675598
5847.330866	-353.369965	-132.599060	-611.642334
5847.334199	-356.701355	-134.819977	-598.024536
5847.338891	-360.967834	-140.138519	-571.373474
5847.342179	-362.195221	-142.008774	-558.106384
5847.345493	-363.831665	-144.463470	-544.839233
5847.348962	-365.292816	-146.684387	-531.396851
5847.351754	-366.111053	-148.145523	-518.305054
5847.355144	-366.812378	-150.132660	-505.563995
5847.358502	-366.227936	-151.243118	-492.413788
5847.361724	-365.760376	-152.295151	-479.789612
5847.365053	-365.994141	-153.580948	-468.509644
5847.368380	-365.175934	-154.457626	-456.645233
5847.371725	-364.299225	-155.275848	-444.430176
5847.375072	-363.773224	-155.977203	-432.916443
5847.378451	-362.253632	-156.853882	-420.818237
5847.381781	-361.260101	-157.146103	-410.064301
5847.385095	-358.805389	-157.204559	-398.667450
5847.388384	-357.578033	-157.321457	-388.147278
5847.391713	-355.532410	-157.029221	-377.393341
5847.395058	-353.019287	-156.620102	-366.756287
5847.398416	-351.441254	-155.977203	-357.346588
5847.401796	-348.928101	-155.743423	-347.060211
5847.405116	-346.707184	-155.275848	-336.715363
5847.408010	-343.784912	-154.399185	-327.773254
5847.411706	-341.505554	-153.814728	-318.597321
5847.415045	-338.758636	-152.821152	-309.713623
5847.417956	-336.128601	-152.178268	-300.829926
5847.421297	-333.381653	-150.658676	-292.121582
5847.424618	-330.459381	-149.372879	-284.056122
5847.427970	-327.770905	-148.905304	-275.347748
5847.431300	-324.673279	-147.035065	-267.983643
5847.434636	-321.458801	-145.866150	-260.444183
5847.437967	-318.127411	-144.989471	-252.904755
5847.441300	-315.088257	-144.346573	-246.241974
5847.444612	-312.516663	-142.943893	-238.527161
5847.447944	-309.594391	-141.132080	-232.215088
5847.451287	-306.087677	-140.196945	-225.318512
5847.454611	-303.457642	-139.378723	-219.357117
5847.457945	-299.950897	-137.976028	-213.395660
5847.461275	-296.385742	-136.339569	-207.668030
5847.464637	-293.580353	-136.105789	-201.472839
5847.467960	-290.482758	-134.410873	-195.219177
5847.471349	-287.560486	-133.241959	-190.017517
5847.474622	-284.930450	-132.540619	-185.225006
5847.477516	-281.482178	-131.839279	-180.257172
5847.480856	-278.150787	-130.728821	-175.347748
5847.484202	-275.871399	-129.559906	-170.672119
5847.487520	-272.890717	-128.858566	-165.470490
5847.490849	-269.968445	-127.397430	-161.087067
5847.494188	-266.929291	-127.046753	-157.346588
5847.497521	-264.299255	-125.644058	-152.612503
5847.500855	-261.026306	-124.650490	-148.579773
5847.504186	-257.928711	-124.007591	-144.313263
5847.507521	-255.181763	-122.546455	-140.748108
5847.510846	-252.551727	-122.254234	-136.773819
5847.514213	-250.272369	-120.851547	-133.383987
