time (s)	magX	magY	magZ
5458.726400	-22.218586	-8.811806	-1047.761597
5458.729735	-36.479248	-15.240795	-1046.417236
5458.733063	-50.856812	-21.611338	-1044.839355
5458.736404	-65.877266	-27.981882	-1042.033936
5458.739733	-79.962593	-34.761543	-1039.170044
5458.743069	-95.158386	-41.132088	-1035.078979
5458.746397	-109.302155	-48.145527	-1029.292847
5458.749728	-123.504379	-55.100525	-1025.377075
5458.753061	-136.946808	-61.997082	-1019.824585
5458.756404	-150.915253	-69.594971	-1014.447693
5458.759733	-164.182343	-75.848625	-1007.726501
5458.763060	-177.507889	-82.628281	-1000.712952
5458.766394	-190.248978	-89.174164	-992.998230
5458.769732	-202.464050	-96.012268	-984.640503
5458.773063	-214.094681	-102.791924	-974.120300
5458.776397	-225.900635	-108.519577	-965.996460
5458.779787	-237.531281	-114.597893	-955.943848
5458.783057	-248.285217	-120.383987	-945.657410
5458.786397	-259.272949	-126.228516	-934.786682
5458.789725	-270.377563	-131.897720	-924.500244
5458.793084	-279.670380	-136.339569	-912.343567
5458.796393	-289.547638	-140.722961	-900.946777
5458.799730	-298.197540	-145.632370	-888.848572
5458.803060	-306.789001	-149.548218	-875.756836
5458.806393	-315.088257	-153.113388	-863.191101
5458.809722	-322.803040	-157.146103	-851.560486
5458.813055	-330.634705	-159.425476	-838.410278
5458.816393	-337.589722	-162.815308	-824.850952
5458.819722	-344.310913	-165.211563	-811.992981
5458.823054	-351.265930	-167.783157	-798.375183
5458.826384	-356.526001	-170.062531	-784.406738
5458.829721	-362.721222	-171.523666	-772.367004
5458.833059	-368.215088	-173.277023	-759.684387
5458.836400	-372.890717	-174.212158	-745.540588
5458.839719	-377.274109	-175.731735	-732.799500
5458.843055	-381.365265	-176.725296	-718.947998
5458.846390	-385.514893	-177.835754	-706.148437
5458.849719	-388.670929	-178.595551	-692.764404
5458.853051	-391.768555	-178.946228	-678.912903
5458.856387	-394.749268	-180.582703	-666.288696
5458.859723	-396.736389	-180.874924	-652.963135
5458.863058	-399.191101	-182.277618	-640.397400
5458.866390	-401.119812	-181.985382	-626.662720
5458.869723	-402.054932	-182.745178	-613.512573
5458.873048	-403.340729	-183.329620	-601.706604
5458.876389	-404.568054	-184.381653	-590.134399
5458.879732	-405.386322	-184.147873	-576.867310
5458.883047	-405.795441	-184.615433	-564.652222
5458.886386	-405.561646	-184.440079	-552.144897
5458.889716	-406.321442	-185.141434	-540.631226
5458.893050	-405.561646	-185.784332	-529.409729
5458.896386	-405.737000	-186.251907	-516.727051
5458.899714	-404.100525	-186.135010	-505.563995
5458.903083	-404.042084	-186.193451	-493.816498
5458.906382	-403.399200	-186.310333	-482.711853
5458.909722	-403.165405	-186.076553	-471.841034
5458.913044	-401.119812	-185.433655	-461.379303
5458.917692	-398.022186	-186.135010	-439.929901
5458.920999	-396.035065	-185.199875	-429.760376
5458.924422	-394.457031	-185.024551	-420.701324
5458.927297	-393.346558	-185.024551	-409.655182
5458.930644	-390.424316	-183.797195	-401.355927
5458.933938	-388.846283	-183.329620	-391.770905
5458.937225	-387.209808	-183.037399	-381.893646
5458.940560	-384.579773	-181.634705	-373.945068
5458.943914	-382.709534	-180.816483	-365.821167
5458.947273	-380.430145	-179.355347	-357.288147
5458.950624	-378.501465	-178.478668	-348.872009
5458.953970	-375.871429	-177.309753	-340.806549
5458.957339	-373.182922	-176.316193	-333.384003
5458.960596	-370.786682	-174.212158	-325.844543
5458.963897	-368.682648	-173.160126	-319.064880
5458.967281	-366.695526	-171.523666	-312.285217
5458.970582	-363.597900	-169.594971	-305.447113
5458.973994	-361.610779	-168.484512	-298.784363
5458.977316	-359.272919	-167.257156	-293.056702
5458.980623	-356.876678	-165.562241	-286.335480
5458.983895	-354.129730	-163.867325	-280.374054
5458.987245	-351.675049	-162.581528	-275.464661
5458.990554	-349.804810	-161.471069	-269.503204
5458.993905	-347.350098	-159.717697	-264.243134
5458.996808	-345.187622	-158.490356	-258.398590
5459.000145	-342.791351	-157.204559	-252.554047
5459.003477	-340.628876	-155.334305	-247.177094
5459.006813	-337.297485	-153.873169	-242.384583
5459.010139	-335.193451	-153.171829	-237.884277
5459.013465	-333.556976	-151.769135	-232.857971
5459.016832	-330.810028	-150.892456	-228.182343
5459.020131	-328.706024	-149.665100	-224.500305
5459.023461	-325.959076	-149.139084	-219.590881
5459.026794	-323.679718	-147.794846	-214.915253
5459.030140	-321.166565	-146.625946	-210.648743
5459.033474	-318.653412	-145.515488	-206.732910
5459.036813	-316.198730	-144.814148	-201.589722
5459.040152	-314.094666	-144.288132	-198.492096
5459.043461	-311.581543	-143.703690	-194.634705
5459.046792	-309.243713	-142.885437	-190.368195
5459.050133	-307.373474	-141.774979	-186.569244
5459.053034	-304.860321	-141.015198	-183.120972
5459.056369	-302.814728	-140.255402	-179.848053
5459.059700	-300.126221	-139.963165	-176.575104
5459.063033	-298.197540	-138.735825	-173.886627
5459.066367	-296.268829	-138.385147	-170.321442
5459.069695	-294.515472	-137.157791	-168.392761
5459.073049	-292.703674	-137.040909	-165.119812
5459.076369	-291.067200	-135.988892	-162.781982
5459.079696	-289.489197	-135.053757	-159.742828
5459.083035	-286.800720	-134.410873	-157.112793
5459.086362	-284.872009	-133.241959	-155.768555
5459.089703	-283.469299	-132.949738	-152.495621
5459.093031	-281.715973	-132.540619	-150.742249
5459.096365	-280.605499	-131.430161	-148.170654
5459.099693	-278.969025	-130.085907	-145.715958
5459.103065	-276.981873	-129.559906	-143.845703
5459.106360	-275.462311	-129.033890	-142.384583
5459.109698	-274.059631	-127.981873	-140.514313
5459.113029	-274.059631	-127.572754	-138.410278
5459.116389	-272.014008	-126.111618	-137.650497
5459.119699	-271.429565	-125.585617	-135.721802
5459.123024	-269.968445	-124.416702	-134.611328
5459.126361	-269.091766	-124.182922	-132.273529
5459.129693	-267.922852	-122.897133	-131.747513
5459.133022	-266.520172	-122.721802	-130.870850
5459.136362	-265.877258	-122.312675	-129.292816
5459.139697	-265.409698	-121.903557	-127.831673
5459.143021	-264.065460	-121.435997	-126.838104
5459.146377	-263.247223	-120.500870	-125.727646
5459.149693	-262.136749	-119.682640	-124.324951
5459.153023	-261.435394	-119.273514	-123.039154
5459.156351	-260.383423	-119.156631	-122.513153
5459.159702	-260.266510	-118.338394	-121.344246
5459.163019	-259.331390	-118.163055	-120.642899
5459.166355	-258.571594	-117.520164	-119.824661
5459.169692	-258.337799	-117.695496	-118.129753
5459.173027	-256.993561	-117.403267	-117.486847
5459.176353	-255.883118	-117.227936	-117.136177
5459.179689	-256.000000	-116.409706	-115.733490
5459.183027	-254.655762	-117.052597	-115.324371
5459.186350	-253.954407	-116.351257	-114.856812
5459.189712	-253.194611	-116.585037	-113.454124
5459.193020	-252.551727	-115.942139	-113.804794
5459.196356	-252.259491	-115.825241	-113.629456
5459.199687	-251.908813	-116.935699	-112.635887
5459.203021	-251.616577	-116.818817	-112.402107
5459.206351	-250.915253	-116.643486	-112.343658
5459.209744	-250.506134	-117.111046	-111.116302
5459.213015	-250.681458	-117.695496	-110.414963
5459.216349	-250.623016	-116.935699	-111.291641
5459.219686	-250.564606	-116.994148	-110.005844
5459.223018	-249.921661	-117.169487	-110.298065
5459.226348	-249.980133	-116.701920	-110.414963
5459.229682	-250.389221	-116.877266	-110.940971
5459.233036	-250.739929	-116.818817	-110.765633
5459.236344	-250.681458	-117.461716	-110.590302
5459.239682	-250.973694	-117.520164	-111.116302
5459.243017	-250.798370	-117.344833	-111.466972
5459.246352	-251.499725	-117.111046	-111.700760
5459.249675	-251.616577	-117.637047	-112.402107
5459.253016	-252.084167	-117.286385	-112.577438
5459.256346	-252.434845	-116.526588	-112.811218
5459.259683	-253.720642	-116.643486	-113.687904
5459.263014	-253.895966	-117.344833	-114.389244
5459.266344	-254.772644	-117.169487	-114.973701
5459.269679	-254.831085	-117.520164	-115.382812
5459.273010	-255.357086	-117.403267	-115.499702
5459.276366	-256.642914	-117.111046	-116.668610
5459.279677	-256.584442	-116.994148	-117.603737
5459.283012	-257.694916	-117.578613	-119.240211
5459.286346	-258.571594	-117.227936	-119.298653
5459.289680	-259.039154	-117.753944	-120.116890
5459.293010	-260.383423	-117.812393	-121.461136
5459.296343	-261.727631	-117.812393	-122.630043
5459.299682	-262.604340	-118.163055	-123.915840
5459.303013	-263.364105	-119.215080	-124.792519
5459.306339	-263.481018	-119.098183	-125.844536
5459.309679	-265.175903	-119.624191	-127.130333
5459.313038	-265.818817	-120.033310	-128.065460
5459.316338	-266.870819	-120.442421	-129.818817
5459.319677	-268.039734	-120.909988	-130.578613
5459.323004	-268.624207	-121.669777	-132.215088
5459.326337	-269.851562	-122.838684	-133.033325
5459.329675	-271.078888	-123.072464	-134.728226
5459.333032	-272.072479	-123.890709	-136.130920
5459.336339	-273.416718	-124.241371	-137.358276
5459.339673	-274.351837	-125.293396	-139.754532
5459.343008	-275.228516	-126.579193	-141.098770
5459.346340	-277.274109	-126.812973	-143.202789
5459.349667	-278.326111	-127.689651	-145.014618
5459.353003	-279.144348	-128.800110	-146.125076
5459.356337	-280.722382	-129.033890	-149.456451
5459.359671	-282.709534	-130.436584	-151.151367
5459.363005	-284.638245	-130.845703	-153.372284
5459.366339	-285.807129	-132.073059	-155.943878
5459.369667	-287.618927	-132.774399	-158.690826
5459.373005	-289.021637	-133.183517	-160.385742
5459.377675	-293.054352	-135.112213	-166.230255
5459.380618	-295.041504	-135.930450	-169.561646
5459.384348	-296.853302	-136.105789	-172.308594
5459.387264	-298.665100	-137.333145	-176.049103
5459.390949	-300.652252	-138.385147	-178.971344
5459.393902	-302.990082	-139.261826	-181.776733
5459.397201	-304.918762	-139.437180	-186.160156
5459.400627	-307.373474	-140.196945	-189.374634
5459.403915	-309.652832	-140.372299	-192.413788
5459.407197	-311.289307	-141.599640	-196.621857
5459.410511	-314.094666	-142.359436	-200.654572
5459.413845	-316.198730	-143.002335	-204.102875
5459.417196	-318.419647	-143.469910	-208.603149
5459.420538	-321.166565	-144.288132	-211.934540
5459.423938	-323.621277	-144.463470	-217.253082
5459.427249	-326.485107	-145.749268	-220.701355
5459.430597	-328.063110	-146.216827	-225.435425
5459.433838	-331.336060	-147.385742	-229.818817
5459.437172	-333.089417	-147.268845	-235.078888
5459.440529	-335.836365	-149.372879	-239.871429
5459.443470	-338.115723	-149.723557	-244.722382
5459.447249	-340.336639	-150.658676	-249.456451
5459.450121	-342.674469	-151.067795	-255.184113
5459.453439	-345.012268	-152.295151	-260.210419
5459.456753	-347.291626	-153.814728	-265.821167
5459.460087	-349.220337	-155.217422	-270.146118
5459.463430	-352.025726	-156.444763	-276.575104
5459.466748	-355.064850	-156.678543	-281.893616
5459.470080	-357.052002	-158.607239	-288.673309
5459.473416	-359.506714	-160.769730	-294.167175
5459.476755	-361.318512	-161.821747	-301.297516
5459.480101	-364.123901	-162.289307	-307.434265
5459.483435	-366.111053	-164.451782	-314.155457
5459.486798	-368.974854	-165.270020	-320.759796
5459.490076	-371.078888	-166.497375	-327.597900
5459.493434	-373.592072	-167.900055	-335.488037
5459.496747	-376.222107	-168.893616	-343.378143
5459.500076	-379.319672	-170.296326	-351.385162
5459.503411	-380.371735	-171.465225	-359.450623
5459.506326	-382.884857	-172.984802	-367.282288
5459.509656	-385.105774	-173.744598	-375.639984
5459.512987	-387.502075	-174.212158	-384.465210
5459.516323	-389.489197	-175.088837	-393.290466
5459.519655	-391.008789	-175.264160	-402.174164
5459.522983	-392.820557	-176.433075	-412.460571
5459.526321	-394.690826	-176.666855	-421.402710
5459.529680	-396.970184	-177.777328	-431.630646
5459.532990	-398.548248	-177.835754	-441.449432
5459.536320	-399.892456	-178.186432	-451.735870
5459.539651	-402.171814	-177.894211	-462.723572
5459.542981	-403.574524	-178.244888	-473.243744
5459.546320	-404.568054	-177.601974	-483.763855
5459.549658	-405.444794	-177.426651	-494.400970
5459.552986	-406.263000	-177.192871	-505.388672
5459.556315	-407.373444	-175.731735	-517.603760
5459.559658	-408.250153	-176.082413	-529.175903
5459.562984	-408.600830	-175.088837	-540.748108
5459.566323	-409.185272	-174.679718	-552.612488
5459.569652	-408.483917	-173.978378	-564.067810
5459.573002	-408.893036	-173.393921	-576.750427
5459.576312	-408.133240	-172.517242	-587.562805
5459.579649	-408.659271	-171.289886	-598.784302
5459.582985	-407.665710	-170.646988	-612.577454
5459.586315	-406.438324	-168.835190	-624.909424
5459.589648	-404.392731	-168.250717	-637.533569
5459.593000	-402.814728	-167.374054	-650.040894
5459.596310	-401.412018	-165.854462	-662.606628
5459.599642	-399.658691	-164.802460	-674.880188
5459.602975	-396.327271	-163.516647	-687.796570
5459.606314	-394.866150	-162.055527	-701.414368
5459.609641	-390.833435	-160.886612	-714.564575
5459.612980	-387.618927	-160.009933	-726.370544
5459.616352	-383.703094	-157.905899	-739.520752
5459.619646	-379.436615	-156.210983	-752.261841
5459.622981	-375.111633	-155.100525	-764.944458
5459.626314	-370.669769	-152.996490	-778.445312
5459.629644	-365.585052	-150.600235	-790.952637
5459.632978	-360.208038	-148.320862	-803.927490
5459.636309	-353.545288	-146.099930	-816.200989
5459.639647	-348.226746	-143.119232	-829.059021
5459.642971	-340.745758	-140.372299	-842.442993
5459.646306	-334.842773	-136.924011	-853.372253
5459.649644	-326.660431	-134.177078	-866.814697
5459.652976	-318.536530	-130.319687	-879.029724
5459.656306	-309.711273	-126.462296	-890.835754
5459.659682	-301.645813	-121.962006	-902.466370
5459.662978	-292.002350	-117.637047	-914.622986
5459.666327	-282.767975	-112.026299	-924.734009
5459.669638	-273.066040	-107.584450	-936.013977
5459.672972	-263.247223	-101.973694	-945.189941
5459.676304	-252.317932	-96.538277	-954.599670
5459.679643	-241.680878	-90.167732	-965.762695
5459.682966	-230.517822	-84.673874	-973.535889
5459.686305	-218.945648	-78.712440	-982.010437
5459.689633	-206.905914	-72.984802	-990.192871
5459.692969	-196.093506	-66.380478	-998.083008
5459.696306	-183.936874	-59.659260	-1003.985962
5459.699635	-172.130905	-52.879604	-1010.239624
5459.702964	-158.863831	-46.392166	-1015.148987
5459.706302	-145.830505	-40.138515	-1021.402649
5459.709646	-132.563416	-32.832848	-1025.201660
5459.712967	-119.646988	-26.462303	-1029.701904
5459.716302	-106.087662	-19.916424	-1032.916504
5459.719731	-92.411453	-12.902981	-1036.189453
5459.722975	-78.852135	-6.357101	-1037.884277
5459.726299	-64.708359	-0.804792	-1039.579224
5459.729636	-51.441261	6.734658	-1041.215698
5459.732971	-37.355927	12.812975	-1041.975464
5459.736302	-23.445938	18.657511	-1041.507935
5459.739634	-9.243713	25.086498	-1041.741699
5459.742962	4.081825	30.405025	-1040.864990
5459.746304	18.400936	36.366451	-1039.462280
5459.749633	32.427822	41.743423	-1036.890747
5459.752987	47.389832	47.120396	-1035.137451
5459.756295	60.890709	52.380478	-1031.981323
5459.759633	75.092926	57.523674	-1028.123901
5459.762962	88.476913	62.959087	-1024.324951
5459.766299	102.445358	67.400940	-1019.123291
5459.769633	115.946236	72.427238	-1014.506165
5459.772959	129.856232	77.395096	-1009.129150
5459.776297	142.947998	82.129166	-1002.817078
5459.779675	155.981293	86.687904	-995.803650
5459.782961	169.715958	91.655762	-988.497925
5459.786293	182.106369	96.156052	-980.257141
5459.789665	194.789017	100.422562	-972.425476
5459.792958	206.594971	104.922859	-963.892456
5459.796314	218.284042	109.130920	-955.651672
5459.799627	230.206909	113.338989	-946.125000
5459.802956	241.311508	118.131508	-936.481567
5459.806293	251.597885	122.164238	-925.435364
5459.809624	262.702515	126.956749	-915.148987
5459.812964	272.930481	130.755707	-905.037964
5459.816288	282.340149	134.905319	-893.115112
5459.819622	290.931610	139.405609	-881.075378
5459.824302	308.699005	147.003510	-857.580383
5459.827260	316.822906	150.393341	-846.651062
5459.830901	323.661011	153.724716	-834.494385
5459.834247	331.551117	157.348343	-821.285767
5459.837581	338.330811	159.978378	-809.479797
5459.840527	344.876678	163.075989	-796.972534
5459.843892	351.247223	165.881363	-784.348267
5459.847204	357.208649	168.511398	-771.841003
5459.850571	362.468719	171.316788	-759.509033
5459.853824	368.430176	172.719467	-747.235535
5459.857135	373.105804	175.174164	-736.189392
5459.860479	377.080078	177.044418	-723.389832
5459.863817	381.521912	178.213318	-711.466980
5459.867206	385.496185	179.732910	-698.550537
5459.870521	388.769135	181.310928	-686.335449
5459.873856	392.509644	182.187607	-674.704834
5459.877137	395.022797	183.414963	-663.074219
5459.880465	398.295746	183.707199	-651.911133
5459.883839	400.575104	183.531860	-639.462280
5459.887157	403.497375	184.466980	-628.182312
5459.890533	405.484528	184.174759	-616.902405
5459.893879	407.471649	185.051437	-606.089966
5459.896781	409.108124	184.408539	-594.985413
5459.900043	410.510803	184.291641	-583.179443
5459.903381	412.907074	183.531860	-572.542358
5459.906710	412.907074	183.122726	-561.671509
5459.910038	413.783752	183.064301	-550.859131
5459.913396	414.485107	182.187607	-540.864990
5459.916712	415.653992	181.720047	-531.104614
5459.920044	415.420227	181.427826	-519.824646
5459.923385	415.420227	180.434250	-509.187622
5459.926768	415.303345	179.732910	-499.427246
5459.930061	415.069550	179.148453	-488.731750
5459.933376	414.543549	178.622452	-478.912903
5459.936711	414.251312	177.570435	-468.684998
5459.940048	413.433075	176.693756	-459.918182
5459.943367	412.030396	176.576859	-449.631805
5459.946701	410.978363	175.407944	-440.865021
5459.950040	410.043243	175.057281	-431.981293
5459.953371	408.289886	174.355942	-423.039185
5459.956734	407.179443	173.187027	-414.681488
5459.959606	405.659851	173.362366	-406.265350
5459.962945	404.140259	172.544128	-397.498535
5459.966282	402.737579	172.193466	-389.608429
5459.969629	400.984222	171.433670	-381.192291
5459.972945	398.178833	170.673874	-373.886627
5459.976280	396.367035	170.089432	-367.165405
5459.979609	394.029205	169.972534	-358.983063
5459.982947	392.626526	169.271179	-351.385162
5459.986270	390.522522	168.394516	-344.605499
5459.989610	388.418457	167.693161	-337.299835
5459.992941	386.197540	166.991821	-330.520172
5459.996271	383.275269	166.232025	-324.617187
5459.999602	381.288116	165.355347	-318.947998
5460.002947	379.826996	165.063126	-312.051453
5460.006269	377.489197	163.485107	-307.375824
5460.009607	375.443604	163.075989	-300.946808
5460.012957	372.696655	162.082413	-295.277618
5460.016275	371.118652	160.562820	-290.543549
5460.019599	369.540619	159.627701	-284.874329
5460.022940	367.436584	158.692581	-279.555817
5460.026270	365.800110	157.932800	-275.055511
5460.029654	362.877838	156.179428	-269.737000
5460.032936	360.598480	154.893631	-265.938049
5460.036269	358.786682	154.250732	-261.203979
5460.039601	356.682648	152.964935	-256.703674
5460.042934	355.221527	151.679138	-252.904755
5460.046273	352.357666	149.984222	-248.170654
5460.049636	350.954987	149.458221	-244.313263
5460.052938	348.967834	147.821732	-240.397430
5460.056278	347.740509	147.003510	-236.247803
5460.059604	345.285797	145.893051	-231.689056
5460.062930	343.298645	145.016357	-228.766815
5460.066261	341.486847	143.555237	-224.324951
5460.069602	339.850372	142.444763	-221.578033
5460.072934	337.863251	141.860321	-217.486847
5460.076261	336.109894	140.457626	-214.272339
5460.079598	333.304504	139.756287	-210.940979
5460.082927	332.018677	138.587387	-207.025116
5460.086265	330.440674	137.827591	-203.167755
5460.089597	328.395081	137.126251	-201.180603
5460.092966	326.583282	136.483353	-197.790771
5460.096258	324.713043	135.957336	-194.576263
5460.099613	322.609009	134.846878	-191.478668
5460.102930	321.673889	134.262421	-188.673279
5460.106258	319.628296	133.327301	-186.510803
5460.109598	318.050262	133.385742	-183.588562
5460.112933	316.413788	132.333725	-181.542938
5460.116265	314.718872	131.807724	-178.737579
5460.119591	313.199280	131.924606	-176.867340
5460.122924	311.913483	131.515488	-174.587952
5460.126261	309.984802	130.405029	-172.016357
