time (s)	magX	magY	magZ
3160.226276	235.408539	113.046753	-165.295135
3160.229602	233.596725	112.403862	-162.665100
3160.232942	232.018707	111.059624	-158.690826
3160.236272	230.090012	110.124496	-155.125671
3160.239602	228.862656	109.189369	-152.670959
3160.242948	227.576859	107.669785	-149.573334
3160.246267	225.531281	106.500877	-146.475739
3160.249604	224.888367	105.741089	-142.618347
3160.252940	222.725891	104.572182	-140.455872
3160.256268	220.914078	103.812401	-136.949158
3160.259615	219.686737	102.000587	-134.962006
3160.262935	217.582703	101.649910	-131.922852
3160.266273	216.530685	101.182350	-129.351257
3160.269603	214.777328	100.013443	-127.422562
3160.272936	213.316193	98.902985	-124.967857
3160.276271	211.679718	98.260086	-122.630043
3160.279602	211.095276	97.909409	-120.467560
3160.282931	209.517242	96.798950	-118.012856
3160.286281	208.348343	96.097610	-116.317940
3160.289600	207.062531	95.279373	-114.915253
3160.292932	205.659851	94.519585	-112.109879
3160.296270	204.958511	93.584457	-111.350082
3160.299603	203.263580	92.707771	-108.953827
3160.302934	202.562241	91.947990	-107.784920
3160.306264	200.750443	91.071304	-106.265343
3160.309601	199.698425	90.895973	-104.687317
3160.314292	198.529510	89.668617	-101.881943
3160.317631	197.302170	88.791939	-100.479256
3160.320953	196.659256	88.441269	-99.018120
3160.324232	195.724136	87.272362	-97.849213
3160.327129	194.672119	86.687904	-96.738754
3160.330492	193.795441	86.395676	-95.745178
3160.333882	192.801880	85.402107	-94.108704
3160.337191	192.275864	85.168327	-93.465805
3160.340469	190.873169	84.350098	-92.355347
3160.343780	190.814728	83.999413	-91.186440
3160.347138	190.522491	83.239632	-90.251312
3160.350467	189.295151	82.947403	-88.556396
3160.353796	188.243134	82.479836	-87.913498
3160.357179	188.067795	81.720055	-88.088837
3160.360514	186.898895	80.609589	-86.452362
3160.363874	186.606659	80.901817	-85.809471
3160.367159	185.963776	79.732910	-84.932785
3160.370441	185.554642	79.557571	-83.997665
3160.373808	184.794861	79.265350	-83.296318
3160.377128	184.093521	79.206902	-82.653412
3160.380452	183.450607	78.388664	-81.309174
3160.383842	182.924606	77.921104	-80.198715
3160.386714	182.515488	77.395096	-80.198715
3160.390079	181.755707	76.810646	-79.029800
3160.393347	181.814148	77.278206	-79.205139
3160.396682	181.638809	77.219757	-78.153122
3160.400016	180.762131	76.343079	-77.919342
3160.403354	180.469894	76.050850	-77.685562
3160.406678	180.353012	75.992409	-77.218002
3160.410019	180.294571	75.700180	-76.516655
3160.413345	179.885452	76.109299	-76.925774
3160.416712	180.002335	75.349510	-76.107544
3160.420029	179.768555	75.232613	-75.347748
3160.423413	179.710114	75.466400	-76.458206
3160.426676	179.768555	75.232613	-75.873756
3160.430016	179.300995	74.881943	-76.633545
3160.433343	179.359436	74.648163	-75.932205
3160.436673	179.885452	74.355934	-76.049095
3160.440013	179.651672	74.180603	-76.341324
3160.442916	179.417892	73.829926	-75.932205
3160.446252	179.067215	73.888367	-76.049095
3160.449583	180.177673	73.771477	-75.932205
3160.452933	180.002335	73.888367	-75.990646
3160.456254	179.943893	73.771477	-75.932205
3160.459589	180.119232	73.187027	-76.399765
3160.462917	180.703690	73.479256	-76.049095
3160.466254	180.528351	72.953247	-76.575104
3160.469592	180.762131	72.836357	-76.691994
3160.472916	181.171249	72.661018	-77.627121
3160.476246	181.755707	72.719467	-78.036240
3160.479578	182.398605	72.953247	-77.744003
3160.482917	182.983047	72.836357	-78.270020
3160.486250	183.684387	72.953247	-78.971359
3160.489582	183.275284	72.836357	-79.380478
3160.492914	183.801285	72.661018	-79.848038
3160.496281	184.385742	72.894806	-79.964935
3160.499584	185.087082	72.777908	-80.607834
3160.502917	185.671539	73.128586	-81.192291
3160.506248	186.197556	72.602570	-82.010521
3160.509575	187.249557	73.187027	-82.127411
3160.512909	187.249557	72.602570	-82.828751
3160.516246	187.892471	72.719467	-83.530098
3160.519580	188.710693	73.011696	-84.406776
3160.522908	189.002930	72.602570	-84.699005
3160.526250	190.288712	73.070137	-86.101692
3160.529572	190.990067	73.187027	-86.043251
3160.532909	191.866745	73.245476	-86.569260
3160.536288	192.100525	73.128586	-88.030396
3160.539577	193.327881	73.713036	-89.023956
3160.542910	193.444778	74.063705	-90.251312
3160.546269	195.022797	73.771477	-91.420227
3160.549578	196.133270	74.180603	-92.413788
3160.552913	196.600830	74.063705	-93.232025
3160.556244	197.769730	74.180603	-95.102280
3160.559575	198.938644	74.005264	-95.686737
3160.562910	199.756866	74.589714	-97.498535
3160.566239	200.633545	74.881943	-98.316772
3160.569580	202.270020	75.291061	-99.777908
3160.572901	203.029800	75.466400	-101.589714
3160.576240	204.374039	75.875519	-103.752190
3160.579572	205.250732	76.050850	-104.745766
3160.582897	207.120987	75.700180	-105.914673
3160.586235	208.172989	76.050850	-107.960258
3160.589585	209.634125	76.635307	-109.421394
3160.592900	210.919937	76.635307	-110.882523
3160.596233	212.439514	77.044426	-113.687904
3160.599567	213.959091	76.985977	-115.032143
3160.602929	215.420227	77.453537	-117.720627
3160.606242	217.115128	77.161316	-120.000000
3160.609570	218.342484	77.921104	-121.870247
3160.612908	219.745178	78.037994	-123.798950
3160.616233	222.082993	78.505554	-126.136765
3160.619570	223.602570	78.622444	-128.649902
3160.622903	225.355927	78.622444	-131.104614
3160.626268	227.401520	78.856224	-133.325531
3160.629573	229.388657	78.680893	-135.721802
3160.632907	230.499115	79.206902	-138.644073
3160.636236	232.544708	79.382240	-140.981873
3160.639568	233.362946	79.616020	-144.079498
3160.642898	235.934540	79.966690	-147.177094
3160.646228	237.921692	80.200470	-149.514908
3160.649568	239.441254	80.142021	-152.495621
3160.652898	241.253067	80.434250	-155.768555
3160.656227	242.831100	80.317360	-158.398590
3160.659567	244.642914	81.018707	-161.613098
3160.662901	247.039154	81.077148	-164.652252
3160.666287	248.441849	81.194038	-167.399200
3160.669600	250.195206	81.778496	-171.373474
3160.672897	252.240814	81.953835	-175.464630
3160.676237	254.403259	82.012276	-178.445374
3160.679567	255.981308	82.479836	-182.770294
3160.682899	258.260681	82.362946	-186.335480
3160.686229	260.423157	82.538284	-190.309753
3160.689568	262.585632	82.888954	-194.400940
3160.692896	264.397430	82.713615	-198.842773
3160.696224	265.916992	82.596725	-203.109283
3160.699556	268.137939	82.888954	-207.960266
3160.702892	269.774414	82.655174	-213.337219
3160.706232	272.170654	82.655174	-218.305084
3160.709560	273.748688	82.947403	-222.396271
3160.712892	275.560486	82.830513	-227.831696
3160.716226	277.956757	82.888954	-232.624207
3160.719576	279.827026	82.070724	-238.527161
3160.722889	281.521912	82.538284	-244.547058
3160.726227	282.690796	81.486267	-249.047333
3160.729558	285.203979	81.603157	-255.534760
3160.732893	286.957336	81.310928	-261.905304
3160.736259	288.944489	81.018707	-267.866760
3160.739552	290.464050	80.434250	-274.061951
3160.742895	291.925201	79.732910	-280.257141
3160.746222	293.970764	79.674461	-286.569275
3160.749552	295.256592	78.271774	-293.816498
3160.754173	298.061951	77.395096	-306.908264
3160.757601	299.289307	76.343079	-314.097015
3160.760906	300.867340	75.583290	-321.694916
3160.764250	301.744019	75.115723	-327.831665
3160.767141	303.088257	73.362366	-336.072479
3160.770839	304.432495	72.485680	-343.728821
3160.774179	304.257172	71.258331	-351.852722
3160.777083	305.250732	70.440102	-359.158386
3160.780441	305.835175	69.680305	-367.048523
3160.783753	306.244324	68.394508	-374.938629
3160.787157	306.361206	66.991821	-382.828766
3160.790466	307.004089	65.413795	-390.426666
3160.793757	306.770294	64.420227	-399.310364
3160.797070	307.004089	62.549973	-407.960266
3160.800428	306.536530	60.913502	-415.908844
3160.803752	306.594971	59.277035	-425.260101
3160.807088	305.601410	57.757454	-434.085358
3160.810468	304.607819	55.127411	-442.852142
3160.813800	303.205139	53.724724	-451.560486
3160.817085	302.036255	51.386906	-459.333740
3160.820400	300.691986	49.399765	-469.269440
3160.823746	299.347748	46.535946	-478.328491
3160.827075	297.769714	44.548801	-488.030426
3160.830418	295.431885	42.152542	-496.504944
3160.833323	293.327881	39.580948	-505.447113
3160.836660	290.990051	36.483345	-516.084167
3160.839994	287.015778	33.444183	-525.318542
3160.843350	283.976624	30.288136	-534.143738
3160.846636	281.054382	26.898304	-543.027466
3160.849981	278.248962	23.683811	-552.787842
3160.853312	273.398010	20.410870	-561.087097
3160.856632	269.189941	16.319696	-570.438354
3160.859970	264.981873	13.046757	-579.205139
3160.863307	259.897156	9.072473	-587.971924
3160.866662	254.929291	5.039743	-596.095825
3160.869986	249.260071	0.013443	-605.330200
3160.873321	243.707779	-4.253068	-613.804749
3160.876669	237.337219	-8.519579	-621.227295
3160.879975	231.025131	-12.902981	-629.818787
3160.883304	224.888367	-17.695499	-637.650513
3160.886665	217.348923	-22.429573	-644.547058
3160.889965	209.751022	-26.579193	-651.677368
3160.892872	203.380478	-32.189949	-658.340088
3160.896205	195.198120	-36.865574	-664.243103
3160.899541	187.249557	-41.716541	-671.782532
3160.902873	178.833435	-46.450611	-677.627075
3160.906207	170.884872	-51.360023	-682.945618
3160.909540	162.118057	-55.626537	-687.796570
3160.912867	153.585037	-60.886616	-692.705994
3160.916211	144.642899	-65.737579	-696.154236
3160.919538	135.525421	-70.530098	-700.888367
3160.922911	126.875511	-75.673286	-704.921082
3160.926207	117.641144	-80.524254	-708.194031
3160.929574	108.173004	-85.316765	-709.888916
3160.932874	98.704849	-89.583282	-712.928101
3160.936220	89.295151	-94.200462	-715.265869
3160.939538	79.300995	-99.460548	-716.785461
3160.942867	69.949738	-103.960831	-717.486816
3160.946205	59.955582	-108.578026	-717.837524
3160.949540	49.961426	-113.954994	-719.298645
3160.952867	39.324371	-118.221504	-718.305054
3160.956201	29.330217	-122.897133	-717.954407
3160.959532	19.160727	-127.397430	-715.032166
3160.962862	8.874344	-132.131500	-714.097046
3160.966200	-1.002922	-136.281113	-712.285156
3160.969533	-10.120396	-140.080063	-709.479797
3160.972868	-20.523666	-144.463470	-707.025085
3160.976195	-30.517822	-149.372879	-703.752197
3160.979548	-40.044411	-153.347168	-699.661011
3160.982863	-49.804794	-156.795441	-695.452942
3160.986255	-59.389832	-161.061951	-690.017517
3160.989533	-68.799538	-164.860901	-685.108093
3160.992868	-77.449448	-168.426056	-679.380432
3160.996195	-86.859146	-171.582108	-673.594360
3160.999527	-95.801285	-175.147278	-666.931580
3161.002866	-104.100525	-178.770889	-660.444153
3161.006196	-112.867325	-181.459381	-653.547607
3161.009529	-121.108124	-183.914093	-646.417297
3161.012867	-129.348907	-186.485687	-638.293335
3161.016191	-136.362350	-189.174164	-629.818787
3161.019533	-143.434250	-191.453537	-621.753357
3161.022884	-150.389252	-193.849792	-614.038574
3161.026195	-157.052002	-195.486252	-605.563965
3161.029526	-163.071884	-197.414963	-596.621826
3161.032864	-169.442429	-198.759201	-587.445923
3161.036197	-175.579178	-200.454117	-578.737549
3161.039521	-181.248398	-201.447693	-570.613647
3161.042863	-186.274689	-202.908829	-561.379272
3161.046190	-191.476334	-203.785507	-552.144897
3161.049526	-195.859741	-204.369949	-542.852112
3161.052879	-199.892471	-204.428406	-533.442383
3161.056197	-204.743423	-204.895966	-524.734070
3161.059522	-209.068390	-205.305069	-515.908813
3161.062855	-212.107529	-206.006424	-505.973114
3161.066223	-216.140259	-205.421967	-496.738739
3161.069526	-218.887207	-205.772629	-486.744629
3161.072851	-222.101685	-205.305069	-478.445374
3161.076189	-224.965515	-204.837509	-468.801849
3161.079538	-227.712463	-204.428406	-459.801270
3161.082854	-229.874908	-204.019287	-451.209808
3161.086186	-232.329620	-203.201050	-442.209229
3161.089521	-234.083008	-202.733490	-433.091766
3161.092854	-236.070129	-202.149033	-423.506744
3161.096185	-237.589722	-200.980133	-415.149048
3161.099521	-238.641724	-200.454117	-405.739349
3161.102855	-240.336639	-199.694321	-397.440094
3161.106183	-240.979553	-198.233200	-389.199310
3161.109535	-241.680878	-197.122726	-380.081818
3161.112852	-242.615997	-195.603149	-371.665680
3161.116186	-243.025116	-194.551132	-362.723572
3161.119516	-244.077148	-193.440674	-355.184113
3161.122854	-244.544708	-191.804199	-347.527771
3161.126182	-244.310913	-190.985977	-338.234955
3161.129522	-244.252472	-189.057281	-331.396851
3161.132851	-243.843353	-187.479248	-322.396271
3161.136186	-243.609589	-186.836349	-315.207489
3161.139522	-243.434265	-184.732315	-307.551147
3161.142853	-243.492706	-183.563416	-301.122162
3161.146214	-242.499146	-181.985382	-293.407379
3161.149516	-241.680878	-179.647568	-286.393921
3161.152858	-240.979553	-178.654007	-279.906494
3161.156179	-240.453552	-176.783752	-273.302155
3161.159514	-239.167725	-175.264160	-267.223846
3161.162846	-237.998840	-173.686142	-260.327301
3161.166181	-237.122162	-172.049667	-254.541199
3161.169512	-236.011688	-170.004089	-248.462891
3161.172845	-235.368805	-168.952072	-242.852142
3161.176196	-233.673889	-166.672699	-237.124481
3161.179513	-232.329620	-165.328461	-231.689056
3161.182848	-231.452972	-163.750427	-226.195221
3161.186178	-230.167145	-161.529510	-221.461151
3161.189513	-229.524261	-160.360611	-216.493286
3161.192844	-227.770905	-158.256577	-211.408539
3161.196196	-225.725311	-157.847443	-207.142029
3161.199516	-225.140839	-155.743423	-202.407959
3161.202840	-223.329041	-154.282288	-197.498535
3161.206174	-221.400360	-152.353592	-193.173584
3161.210856	-219.530090	-149.139084	-185.867920
3161.214230	-217.718292	-146.801285	-181.835175
3161.217509	-216.374054	-145.515488	-177.101105
3161.220812	-214.912903	-144.638809	-173.594391
3161.224128	-213.451782	-142.417877	-170.379883
3161.227092	-212.341324	-141.248978	-166.405609
3161.230377	-210.412613	-139.963165	-162.840454
3161.233768	-208.951492	-138.560486	-159.392181
3161.237089	-207.607239	-137.157791	-156.002335
3161.240456	-206.321442	-135.404434	-153.664520
3161.243694	-204.918762	-134.235535	-149.748688
3161.247018	-203.457642	-132.599060	-146.008179
3161.250351	-201.821152	-131.430161	-143.144363
3161.253708	-200.476898	-130.436584	-140.280548
3161.257067	-199.308014	-129.209229	-136.189362
3161.260429	-198.022217	-127.455872	-133.383987
3161.263755	-196.327301	-126.345398	-131.279953
3161.267024	-195.392166	-125.001167	-128.299240
3161.270351	-193.521927	-123.890709	-125.844536
3161.273688	-192.586792	-123.130913	-123.857391
3161.277038	-191.417877	-121.611328	-121.694916
3161.280375	-189.606094	-120.500870	-118.772644
3161.283304	-188.320267	-119.156631	-116.142609
3161.286615	-187.268280	-118.396843	-113.804794
3161.289952	-185.865585	-117.111046	-112.285217
3161.293286	-184.871994	-115.240784	-109.830505
3161.296598	-183.819977	-114.422554	-107.784920
3161.299924	-182.475754	-114.305664	-105.680893
3161.303253	-181.715958	-112.786087	-105.154877
3161.306600	-180.137939	-112.084747	-102.758614
3161.309926	-179.027481	-111.441849	-101.531265
3161.313260	-178.033890	-109.746933	-99.777908
3161.316584	-176.572769	-109.220917	-97.264755
3161.319947	-176.105209	-108.168907	-96.621857
3161.323276	-175.696075	-107.292221	-94.810051
3161.326623	-174.351822	-106.649323	-93.115135
3161.329926	-173.124496	-105.714203	-91.946228
3161.333251	-172.364700	-105.655754	-90.777321
3161.336584	-171.897141	-104.603745	-89.433083
3161.339927	-171.195786	-103.902397	-88.965515
3161.343247	-170.435989	-103.025711	-87.270599
3161.346585	-169.325531	-102.733490	-85.809471
3161.349927	-168.916428	-101.564583	-85.751022
3161.352839	-168.273514	-101.213905	-84.640556
3161.356161	-167.689072	-100.571007	-84.465225
3161.359497	-166.695496	-99.986549	-82.478088
3161.362853	-165.877258	-99.635887	-82.419632
3161.366159	-165.526596	-98.291641	-81.016953
3161.369493	-164.825241	-97.707184	-80.140274
3161.372831	-163.831680	-97.648735	-79.964935
3161.376163	-163.247223	-96.888954	-79.497368
3161.379497	-163.188782	-96.538277	-78.796021
3161.382825	-162.253662	-95.953827	-77.510223
3161.386156	-162.312103	-95.661598	-76.984222
3161.389489	-161.844528	-95.310921	-76.165985
3161.392828	-161.493866	-94.025124	-75.347748
3161.396158	-160.675644	-94.200462	-74.763298
3161.399487	-160.266510	-93.090004	-73.769730
3161.402832	-160.266510	-93.031555	-73.126831
3161.406190	-160.324951	-93.206894	-73.711281
3161.409495	-159.506714	-92.447105	-71.724136
3161.412825	-159.039154	-91.628868	-71.724136
3161.416159	-157.928696	-91.511978	-71.548798
3161.419490	-158.513153	-90.927528	-71.607246
3161.422820	-158.104034	-91.161308	-70.789009
3161.426155	-157.636475	-90.810638	-70.379898
3161.429484	-157.694916	-90.401512	-69.678551
3161.432822	-157.694916	-90.109291	-69.327881
3161.436179	-157.227356	-89.933952	-69.444763
3161.439486	-157.753357	-89.758621	-69.269432
3161.442818	-157.461136	-89.641731	-69.210983
3161.446152	-157.227356	-89.115715	-68.977203
3161.449523	-156.350662	-89.291054	-69.269432
3161.452823	-157.110458	-88.765045	-68.684982
3161.456172	-157.461136	-88.765045	-68.158966
3161.459489	-157.344238	-88.472824	-68.334305
3161.462816	-156.993576	-88.355927	-68.801865
3161.466147	-157.461136	-88.122147	-68.509644
3161.469485	-157.636475	-88.823494	-69.035652
3161.472815	-157.519577	-88.122147	-69.737000
3161.476149	-158.104034	-88.589714	-69.795441
3161.479480	-157.987137	-88.355927	-70.321449
3161.482816	-158.396255	-88.180595	-70.730560
3161.486150	-158.571594	-88.355927	-71.022797
3161.489487	-159.156052	-88.063705	-71.665695
3161.492835	-160.032715	-87.654579	-71.081238
3161.496165	-159.915848	-87.654579	-71.724136
3161.499498	-160.558746	-88.063705	-72.250145
3161.502814	-160.617172	-88.531265	-71.548798
3161.506147	-161.318527	-87.946808	-72.542374
3161.509483	-161.669205	-88.239037	-73.477493
3161.512815	-162.136765	-88.531265	-74.354179
3161.516144	-162.545883	-88.765045	-74.471069
3161.519482	-163.247223	-88.706604	-75.289307
3161.522808	-164.123917	-88.881935	-76.341324
3161.526146	-163.773224	-88.940384	-77.218002
3161.529474	-164.825241	-88.823494	-77.276443
3161.532816	-165.351257	-89.349503	-77.159554
3161.536142	-165.701935	-89.407951	-77.977791
3161.539476	-165.877258	-89.349503	-78.445351
3161.542823	-167.163055	-89.933952	-79.088249
3161.546143	-167.221512	-89.933952	-80.490944
3161.549479	-167.922852	-89.583282	-80.490944
3161.552811	-168.916428	-90.226181	-81.835182
3161.556142	-170.026886	-90.226181	-82.945648
3161.559505	-170.143768	-90.518410	-83.705429
3161.562807	-171.488022	-90.752190	-84.932785
3161.566140	-172.247803	-90.401512	-85.575684
3161.569477	-173.708939	-91.453529	-86.919930
3161.572808	-174.176498	-91.570419	-87.562836
3161.576146	-175.111618	-91.570419	-89.199295
3161.579471	-176.748108	-92.213326	-90.894211
3161.582804	-177.449432	-92.505547	-91.537109
3161.586157	-178.209229	-92.680885	-92.764465
3161.589474	-178.910583	-93.382233	-94.576271
3161.592800	-180.839264	-94.142014	-95.920517
3161.596136	-181.540619	-94.025124	-97.790764
3161.599473	-183.410873	-94.142014	-99.076561
3161.602806	-185.047333	-94.726471	-100.420807
3161.606133	-186.333145	-95.135590	-102.466393
3161.609472	-187.268280	-95.252480	-104.044418
3161.612802	-188.787842	-96.479828	-105.505554
3161.616129	-189.313858	-96.596718	-107.200470
3161.619481	-191.067215	-97.005844	-110.239624
3161.622799	-192.060776	-97.298065	-112.518997
3161.626130	-193.931030	-97.940964	-114.097015
3161.629493	-195.859741	-98.291641	-116.317940
3161.632805	-197.379318	-98.583862	-117.954407
3161.636132	-198.022217	-99.343658	-119.532440
3161.639465	-199.658676	-100.220329	-122.162483
3161.642804	-201.704254	-100.454117	-124.792519
3161.646131	-202.990067	-100.921677	-128.123901
3161.649467	-203.983627	-101.447685	-130.286377
3161.652798	-205.912323	-102.090584	-132.448853
3161.657461	-209.419052	-102.908821	-138.176514
3161.660832	-210.704849	-103.201050	-140.280548
3161.664180	-212.516663	-103.785500	-143.436584
3161.667064	-214.445343	-105.012856	-146.417297
3161.670752	-216.081818	-105.655754	-149.748688
