time (s)	magX	magY	magZ
6048.920705	-237.180573	-121.903557	-132.741089
6048.924038	-238.407928	-123.306244	-136.656921
6048.927394	-240.979553	-124.358269	-140.455872
6048.930703	-243.784912	-125.118065	-144.254822
6048.934037	-245.888947	-125.936295	-147.586212
6048.937377	-248.109894	-127.572754	-152.495621
6048.940707	-250.623016	-128.274109	-156.645233
6048.944039	-252.785522	-129.852127	-160.561066
6048.947370	-255.824646	-131.547043	-165.236694
6048.950709	-259.156067	-132.599060	-169.561646
6048.954037	-260.617187	-133.767975	-173.360596
6048.957375	-262.954987	-134.936874	-178.737579
6048.960740	-265.526611	-136.339569	-184.114532
6048.964035	-268.098175	-137.099365	-188.322632
6048.967378	-270.494446	-138.443604	-193.758057
6048.970702	-273.299835	-139.670959	-198.199890
6048.974032	-275.812988	-141.307419	-203.752197
6048.977368	-278.209229	-142.885437	-209.246063
6048.980702	-280.897736	-143.528336	-214.389252
6048.984038	-283.118652	-144.989471	-220.409119
6048.987368	-285.164246	-146.918167	-225.902985
6048.990725	-287.209808	-148.671524	-231.455292
6048.994030	-290.599640	-149.314438	-237.767395
6048.997367	-292.586792	-151.067795	-243.962585
6049.000701	-294.866150	-152.061371	-249.748688
6049.004031	-297.437744	-153.580948	-256.236115
6049.007370	-299.308014	-154.691406	-262.665100
6049.010721	-302.230286	-156.327881	-269.561676
6049.014030	-304.334290	-157.438339	-276.224457
6049.017363	-306.555237	-158.607239	-282.770325
6049.020696	-309.477478	-159.367035	-291.361786
6049.024035	-311.113983	-160.126831	-298.258331
6049.027364	-313.568695	-161.529510	-306.031555
6049.030696	-314.854462	-162.932205	-314.272369
6049.034038	-317.776733	-163.867325	-322.688477
6049.037363	-320.348328	-164.860901	-332.215088
6049.040698	-321.984802	-165.503799	-340.806549
6049.044028	-323.796600	-166.497375	-351.034515
6049.047380	-325.725311	-167.081818	-360.210419
6049.050703	-327.244904	-167.607834	-370.146118
6049.054043	-328.355347	-168.250717	-379.263580
6049.057358	-330.225616	-168.309174	-389.433075
6049.060693	-331.336060	-168.367615	-400.654602
6049.064031	-332.680328	-168.835190	-410.824097
6049.067365	-334.083008	-168.718292	-422.688477
6049.070691	-334.433655	-168.776733	-434.552887
6049.074026	-334.784332	-168.776733	-445.073059
6049.077362	-335.310333	-168.835190	-457.288147
6049.080691	-335.310333	-168.484512	-469.035645
6049.084020	-335.076569	-167.666275	-481.893616
6049.087362	-335.018127	-167.607834	-494.050293
6049.090715	-334.667450	-167.198715	-506.206909
6049.094026	-333.673889	-166.205139	-518.597290
6049.097359	-332.095856	-165.679123	-531.455261
6049.100693	-330.634705	-165.386902	-544.079468
6049.104021	-328.881348	-163.516647	-556.294556
6049.107355	-326.718872	-162.698425	-569.386292
6049.110691	-324.322632	-161.237289	-582.361145
6049.114021	-322.101685	-159.951477	-594.400940
6049.117355	-319.530090	-158.548798	-607.317322
6049.120686	-315.205139	-157.204559	-618.889526
6049.124018	-310.997070	-154.457626	-633.033264
6049.127358	-307.490356	-153.230270	-645.423706
6049.130693	-303.399170	-150.834015	-657.288147
6049.134046	-299.132660	-148.554642	-670.087646
6049.137354	-293.288116	-145.632370	-681.718262
6049.140690	-288.144928	-143.119232	-693.173523
6049.144019	-282.534180	-140.138519	-706.089966
6049.147355	-276.514313	-137.157791	-717.194580
6049.150683	-270.260651	-133.475739	-728.883667
6049.154015	-263.364105	-130.027466	-738.936279
6049.157355	-256.409119	-126.111618	-749.807129
6049.160679	-248.635895	-122.546455	-760.268799
6049.164019	-240.511993	-117.929276	-771.081177
6049.167350	-233.089417	-113.136757	-781.718262
6049.170692	-224.030396	-107.993561	-791.069519
6049.174016	-214.912903	-102.967270	-800.771484
6049.177387	-206.087677	-97.648735	-810.414917
6049.180685	-196.444199	-91.102859	-818.714172
6049.184018	-186.040924	-85.375214	-827.188782
6049.187352	-175.228516	-79.355347	-835.429565
6049.190680	-164.708344	-73.043251	-842.969055
6049.194018	-153.194626	-66.614258	-850.216187
6049.197350	-141.447113	-60.185272	-855.359436
6049.200684	-129.933380	-53.113384	-861.963745
6049.204015	-116.958511	-45.340153	-867.457581
6049.207348	-104.801880	-38.794273	-872.542358
6049.210675	-91.593216	-31.780830	-875.932190
6049.214006	-78.209236	-24.708942	-880.081848
6049.217346	-64.708359	-17.812389	-881.367615
6049.222081	-37.648155	-3.025716	-885.400269
6049.225374	-24.381065	4.689071	-885.458740
6049.228683	-10.120396	11.702513	-885.341919
6049.231979	3.848045	18.657511	-884.874329
6049.235396	17.524256	25.787844	-883.120911
6049.238219	30.908241	32.450615	-880.607788
6049.241600	45.811806	39.054939	-877.276428
6049.244938	58.845123	45.600819	-873.711304
6049.248188	71.819992	51.503796	-870.672119
6049.251530	85.203979	57.699005	-865.470520
6049.254854	98.412628	64.361778	-859.859741
6049.258208	110.978378	69.212746	-854.599670
6049.261540	123.310349	75.466400	-848.170654
6049.264969	134.707184	80.551147	-841.975403
6049.268275	147.156052	86.220345	-834.903503
6049.271535	158.377563	91.421974	-827.305664
6049.274863	170.183517	96.740501	-819.181702
6049.278180	180.353012	101.182350	-811.466980
6049.281531	190.639389	105.799538	-803.284607
6049.284881	201.101105	110.299828	-792.705994
6049.288291	210.803040	115.209236	-784.056091
6049.291587	220.212738	120.001762	-774.061890
6049.294856	229.096436	124.385155	-763.950867
6049.298184	237.103439	129.060776	-753.372253
6049.301102	245.402695	132.216843	-743.495056
6049.304432	253.409698	136.541794	-732.390381
6049.307794	260.715393	140.165405	-720.818237
6049.311093	268.839264	143.496796	-709.596741
6049.314450	275.209808	147.587952	-698.433655
6049.317773	281.346588	150.802460	-685.867859
6049.321162	287.834015	154.367630	-673.652771
6049.324423	293.561646	157.406784	-662.139099
6049.327770	298.295746	159.861481	-649.631775
6049.331111	303.555817	162.783752	-636.364685
6049.334426	308.406799	165.121567	-623.682007
6049.337758	312.439514	167.517838	-611.525391
6049.341082	316.881348	169.095856	-598.901245
6049.344417	320.154297	171.492111	-586.043213
6049.347776	323.602570	172.777908	-573.535889
6049.351124	326.524841	174.531265	-561.028625
6049.354429	329.154877	175.992401	-548.521301
6049.357337	332.369385	177.453537	-535.429565
6049.360667	334.239624	177.278198	-524.266479
6049.363997	335.876099	178.271774	-510.824097
6049.367326	337.863251	179.323792	-498.959656
6049.370663	339.265930	179.908249	-487.679749
6049.374000	340.259491	179.966690	-475.873779
6049.377332	341.311523	179.557571	-464.710693
6049.380667	340.785522	179.791351	-452.963196
6049.383995	341.603729	179.206894	-441.917023
6049.387332	341.545288	179.674454	-431.221527
6049.390664	341.486847	178.680893	-421.227356
6049.393992	341.136169	177.745758	-410.765656
6049.397331	340.201050	177.628876	-400.596130
6049.400665	340.142609	176.869080	-390.718903
6049.403999	338.915253	175.758621	-381.309174
6049.407323	337.571014	174.998840	-371.665680
6049.410694	336.811218	174.355942	-363.950928
6049.413995	335.291656	172.894806	-354.774994
6049.417320	333.655182	171.550568	-345.715942
6049.420659	332.018677	171.024551	-337.592072
6049.424009	330.440674	169.797195	-328.766815
6049.427319	328.570435	168.978973	-320.993561
6049.430660	327.167725	167.751617	-314.447693
6049.433991	325.531281	166.991821	-306.206909
6049.437318	323.251892	166.056702	-299.018127
6049.440658	321.323212	164.654007	-290.543549
6049.443988	319.277618	163.718887	-284.231445
6049.447320	317.115143	162.549973	-277.510223
6049.450658	314.601990	161.556396	-270.146118
6049.454014	312.264160	160.387497	-263.483368
6049.457320	309.984802	159.393921	-257.054352
6049.460657	307.822327	158.867920	-250.391571
6049.463987	305.542938	157.465240	-243.845703
6049.467325	302.562256	156.530090	-238.001190
6049.470707	300.691986	154.718292	-231.513733
6049.473985	297.477478	154.484512	-225.201630
6049.477319	294.964355	152.964935	-219.298645
6049.480652	292.217407	151.386902	-213.804779
6049.483989	289.645813	150.685562	-208.486267
6049.487324	286.840454	149.049088	-203.401520
6049.490652	284.093506	147.938629	-197.790771
6049.493982	281.755676	146.185272	-191.595551
6049.497315	279.184113	145.308594	-187.679718
6049.500643	276.495605	143.730576	-182.419647
6049.503986	274.391602	142.386337	-177.510223
6049.507316	271.644653	141.217422	-173.769714
6049.510661	269.423737	139.756287	-169.210999
6049.513986	266.618347	138.412033	-165.470490
6049.517311	263.929871	137.476913	-161.320862
6049.520649	262.059631	136.015793	-157.580353
6049.523980	259.663330	134.729980	-153.372284
6049.527313	256.799530	133.502625	-149.047348
6049.530669	254.695496	132.275284	-146.125076
6049.533977	253.234375	131.515488	-143.202789
6049.537316	251.305679	129.645233	-138.994736
6049.540672	249.201645	128.359436	-136.189362
6049.543982	247.389832	126.898300	-133.325531
6049.547312	244.993576	125.846291	-130.286377
6049.550643	242.947998	125.144951	-128.708359
6049.553983	241.311508	123.566925	-125.786095
6049.557307	239.207474	123.333145	-122.688484
6049.560641	237.512573	121.170670	-120.818237
6049.563981	235.642319	119.943314	-118.188194
6049.567312	234.122742	119.475746	-115.441261
6049.570642	231.668030	118.540627	-113.337234
6049.573977	230.031555	117.897728	-110.824081
6049.577304	228.278198	116.495041	-109.187607
6049.580641	226.992401	116.378143	-107.317360
6049.583980	225.355927	115.092354	-105.037987
6049.587304	224.187027	114.800125	-103.635300
6049.590668	222.609009	114.098778	-101.765053
6049.593974	220.095856	112.929871	-99.661018
6049.597309	219.336060	111.819412	-97.732315
6049.600642	217.465820	111.585617	-96.271187
6049.603971	215.595566	110.475159	-94.634720
6049.607307	214.368210	110.416710	-92.589127
6049.610644	212.497955	109.540039	-91.478668
6049.613976	211.212158	108.663361	-89.725304
6049.617307	209.108124	108.254242	-88.614845
6049.620670	208.289886	108.137344	-87.913498
6049.623972	206.887207	107.085335	-85.400345
6049.627305	205.309189	106.208649	-84.348335
6049.630632	203.672699	105.857986	-83.004089
6049.633974	202.796021	105.273521	-81.133835
6049.637307	201.919342	104.689079	-80.023376
6049.640639	200.750443	104.572182	-79.088249
6049.643963	199.230850	103.695503	-77.802452
6049.647299	198.295731	103.169495	-76.165985
6049.650674	197.535950	102.117477	-75.113968
6049.653975	196.542374	101.533020	-74.529510
6049.657303	195.490356	101.591469	-74.178848
6049.660638	195.198120	101.065460	-73.068382
6049.663997	193.912338	100.071892	-71.022797
6049.667299	193.386322	99.955002	-70.964348
6049.670637	192.275864	99.779663	-70.964348
6049.673967	192.042084	99.721222	-69.386322
6049.678591	190.931625	98.669205	-68.684982
6049.681980	190.113388	98.435425	-67.983635
6049.685323	189.879608	97.617187	-67.516068
6049.688239	189.412033	97.558739	-67.516068
6049.691900	189.295151	97.032738	-65.996490
6049.695251	189.178253	97.032738	-65.821152
6049.698167	188.243134	96.740501	-66.171829
6049.701512	188.301575	96.565170	-65.178253
6049.704897	188.067795	96.565170	-65.821152
6049.708264	187.892471	96.331390	-65.821152
6049.711546	187.191116	96.156052	-65.528931
6049.714817	186.898895	95.630043	-64.652252
6049.718152	186.489761	95.805382	-64.944473
6049.721475	187.132675	96.039162	-64.652252
6049.724822	186.197556	96.506721	-64.944473
6049.728164	186.489761	95.922272	-65.412041
6049.731558	185.846878	96.389832	-65.002922
6049.734897	186.489761	96.565170	-65.002922
6049.738144	185.788422	96.798950	-64.886032
6049.741462	185.788422	97.032738	-64.418472
6049.744811	185.729980	97.324959	-64.067795
6049.748158	185.846878	96.740501	-64.535355
6049.751524	186.139099	97.266518	-65.061371
6049.754875	186.022202	97.266518	-64.827591
6049.757740	185.554642	97.558739	-65.353592
6049.761097	185.671539	97.617187	-65.353592
6049.764380	185.963776	97.792519	-64.827591
6049.767713	186.080658	97.675629	-65.236702
6049.771053	186.372879	97.675629	-65.061371
6049.774405	186.314438	98.026306	-66.054939
6049.777709	186.898895	98.786095	-65.938049
6049.781044	187.132675	97.967857	-65.996490
6049.784396	187.658691	99.078316	-66.171829
6049.787731	187.834015	98.902985	-66.464050
6049.791071	188.418472	99.195206	-66.580948
6049.794464	188.769150	99.955002	-66.697838
6049.797710	188.710693	99.955002	-66.814728
6049.801058	188.944473	99.838112	-67.983635
6049.804383	189.704269	99.662773	-68.684982
6049.807708	190.756287	100.130333	-69.444763
6049.811041	191.574524	100.773239	-69.912331
6049.814380	192.392746	101.123909	-71.022797
6049.817283	193.152542	101.591469	-70.964348
6049.820621	193.444778	102.409706	-71.957916
6049.823953	194.789017	102.234367	-72.717712
6049.827288	196.133270	102.351257	-73.126831
6049.830618	196.776154	103.286392	-74.938629
6049.833952	198.003510	103.695503	-75.639977
6049.837333	198.938644	103.987732	-77.510223
6049.840619	199.990646	104.279961	-78.153122
6049.843950	200.867325	105.507309	-79.614258
6049.847280	202.211578	106.091766	-80.666275
6049.850617	203.555817	106.617775	-82.244301
6049.853947	205.075409	107.026886	-82.594971
6049.857285	206.127411	107.494453	-83.880768
6049.860615	206.945648	109.072472	-85.458801
6049.863946	207.647003	109.598488	-86.978378
6049.867284	209.634125	110.533607	-88.497955
6049.870614	210.803040	111.001175	-89.959091
6049.873950	212.439514	111.585617	-91.127991
6049.877280	213.842194	112.228531	-93.465805
6049.880628	214.601990	113.397430	-94.810051
6049.883942	216.063126	114.858574	-96.621857
6049.887275	217.348923	115.267685	-98.316772
6049.890610	218.400940	116.553474	-99.953239
6049.893945	219.628296	117.254822	-101.998833
6049.897286	221.206314	118.306839	-104.511986
6049.900609	223.193451	119.241966	-106.090004
6049.903942	224.888367	120.410873	-108.252487
6049.907274	226.583282	121.696678	-109.772064
6049.910615	227.167740	122.456459	-112.168327
6049.913936	229.096436	124.034492	-113.512566
6049.917275	231.083572	124.911171	-116.434830
6049.920611	232.544708	125.963181	-118.655754
6049.923975	234.414963	126.781418	-120.642899
6049.927271	237.045013	127.891876	-123.156052
6049.930609	238.506134	128.885452	-125.961426
6049.933944	239.499710	130.288132	-129.643494
6049.937273	241.895966	130.638809	-131.572174
6049.940607	244.467575	132.041504	-134.436005
6049.943937	245.753372	132.918182	-137.241394
6049.947269	247.974289	133.385742	-140.923431
6049.950603	250.253662	135.489777	-144.839264
6049.953999	252.708374	136.600235	-148.053772
6049.957272	254.812393	138.119827	-151.794281
6049.960602	257.384003	138.879593	-155.300995
6049.963945	259.721802	140.457626	-160.035065
6049.967304	262.059631	141.684982	-162.898895
6049.970605	264.514313	142.327881	-168.158966
6049.973937	266.852112	144.139679	-172.893036
6049.977272	269.423737	145.308594	-176.867340
6049.980606	271.761536	146.009933	-181.133850
6049.983933	274.216248	147.763306	-185.984802
6049.987269	276.378723	149.341324	-190.192871
6049.990601	278.891876	150.510223	-195.219177
6049.993937	281.405029	151.679138	-199.953247
6049.997266	282.924622	153.958496	-205.330200
6050.000603	285.788422	154.484512	-211.350098
6050.003935	288.184692	156.296310	-217.019287
6050.007274	290.756287	158.166580	-221.987152
6050.010666	292.626526	159.744598	-227.890106
6050.013933	295.373474	161.205734	-234.552917
6050.017275	297.126831	163.192871	-240.748077
6050.020597	299.932190	164.420227	-246.534210
6050.023927	301.159546	166.056702	-252.612518
6050.027264	303.672699	167.634720	-258.690826
6050.030596	305.776733	169.095856	-265.178253
6050.033935	307.880768	170.673874	-271.256592
6050.037261	309.692566	171.901230	-278.094696
6050.040602	311.212158	174.005264	-284.932800
6050.043931	313.725311	175.992401	-292.530670
6050.047265	315.127991	177.336655	-300.070160
6050.050591	317.232025	178.856232	-307.375824
6050.053954	319.043823	180.492706	-315.149048
6050.057260	320.504944	181.895386	-322.922272
6050.060595	322.024536	183.181183	-331.046173
6050.063923	323.953247	184.057861	-339.988342
6050.067263	325.122162	185.986557	-348.404449
6050.070611	326.174164	186.395691	-356.937469
6050.073926	327.752197	188.090591	-366.347168
6050.077261	328.804199	188.908829	-375.347748
6050.080595	329.797791	189.493271	-385.108154
6050.083930	330.791351	190.662186	-394.868500
6050.087257	332.135590	191.889542	-404.511993
6050.090590	332.603149	191.421982	-414.623016
6050.093929	333.129181	191.772659	-424.850983
6050.097296	333.596741	192.649338	-435.604919
6050.100589	333.187622	192.883118	-446.767975
6050.103927	333.538269	193.116898	-458.281738
6050.107254	332.661621	192.824661	-469.736969
6050.110591	332.953827	193.116898	-480.198730
6050.113917	332.252472	193.000000	-491.186462
6050.117252	330.674469	192.766220	-502.817078
6050.120592	329.154877	192.181763	-515.733521
6050.123918	327.635284	191.421982	-527.890137
6050.128603	323.544128	190.837524	-552.963135
6050.131907	320.797180	189.201065	-564.359985
6050.135239	317.699585	188.265930	-576.633545
6050.138643	314.894196	187.973709	-588.965515
6050.141489	310.919922	186.395691	-601.239014
6050.144838	306.594971	185.051437	-613.220276
6050.148199	302.503815	183.999420	-625.376953
6050.151446	297.711273	182.187607	-636.890686
6050.154764	292.334290	180.200470	-648.813538
6050.158098	287.132690	178.622452	-660.561035
6050.161465	281.112793	177.161316	-672.600769
6050.164803	275.151367	174.881943	-683.763855
6050.168166	268.780823	173.128586	-695.862061
6050.171515	261.358276	170.556992	-706.674438
6050.174842	254.578613	168.043839	-717.895935
6050.178096	246.513153	165.296906	-729.000549
6050.181434	238.506134	161.848633	-739.812927
6050.184771	230.732895	159.043259	-748.755066
6050.188110	222.258331	155.302750	-759.392151
6050.191483	212.790192	151.796036	-768.918762
6050.194865	203.906479	147.704849	-780.023315
6050.198171	193.561661	143.613678	-787.971924
6050.201427	184.093521	139.288727	-796.095825
6050.204371	174.099350	134.437759	-805.680847
6050.207673	163.812988	129.586792	-813.454102
6050.210996	152.942139	124.735832	-822.454712
6050.214344	141.779083	118.657509	-829.526550
6050.217686	130.791351	113.105202	-836.715332
6050.221016	119.160721	107.436005	-842.442993
6050.224355	107.237877	101.416130	-848.404419
6050.227691	95.198135	94.052017	-854.774963
6050.231044	83.275284	87.564583	-859.742859
6050.234382	71.118645	80.843369	-864.009277
6050.237673	58.085335	74.355934	-869.386292
6050.240998	45.344246	67.459381	-872.951477
6050.244330	31.726479	60.679722	-875.639893
6050.247672	18.634718	53.490940	-878.094666
6050.251002	5.659851	46.360607	-879.029724
6050.254342	-7.431908	39.464054	-879.497314
6050.257681	-20.640556	32.216831	-879.964905
6050.261013	-33.907654	24.969608	-879.906433
6050.264388	-46.882523	17.780830	-878.737549
6050.267240	-59.915833	10.825832	-877.510193
6050.270573	-72.715370	3.929281	-873.711304
6050.273903	-86.216255	-3.025716	-871.490356
6050.277274	-98.723541	-10.272940	-867.574524
6050.280566	-111.347748	-16.877264	-862.898804
6050.283905	-123.679718	-23.423145	-858.749268
6050.287236	-134.959671	-29.267679	-852.437134
6050.290581	-146.824081	-35.170662	-847.001770
6050.293908	-158.746933	-41.541206	-839.696045
6050.297238	-170.026886	-46.859730	-834.026917
6050.300569	-180.780838	-52.528931	-826.312073
6050.303904	-191.534775	-58.022793	-818.012878
6050.307236	-200.184692	-63.808880	-808.369324
6050.310575	-210.354172	-68.601395	-800.070068
6050.313899	-220.231445	-73.686142	-791.303284
6050.317240	-228.939789	-78.361771	-781.250732
6050.320593	-237.414368	-82.686729	-771.490356
6050.323942	-246.239624	-87.420799	-762.489746
6050.327231	-253.545288	-92.037987	-752.203369
6050.330568	-262.195190	-96.538277	-741.916992
6050.333923	-268.682648	-100.161896	-730.870789
6050.337234	-275.520752	-104.136177	-719.590881
6050.340569	-281.832855	-108.578026	-708.778503
6050.343900	-287.502045	-112.376976	-697.089355
6050.347252	-293.229706	-115.942139	-686.043213
6050.350566	-298.606659	-119.390411	-674.120361
6050.353904	-302.990082	-123.423141	-662.840393
6050.357235	-308.250122	-126.929871	-650.917603
6050.360558	-312.165985	-130.027466	-638.936279
