time (s)	magX	magY	magZ
5363.272616	402.153107	177.219757	-610.181152
5363.275944	403.555817	178.271774	-598.842773
5363.279294	405.601410	178.622452	-586.978333
5363.282609	406.594971	179.674454	-574.587891
5363.285943	407.237885	180.025146	-563.307983
5363.289282	408.348328	181.194046	-553.021606
5363.292645	408.465210	181.778488	-540.689697
5363.295944	409.400360	182.246063	-529.994141
5363.299303	408.991211	182.888947	-518.421936
5363.302610	408.815887	183.064301	-507.551117
5363.305939	408.874359	182.596741	-496.972534
5363.309278	408.523651	182.713623	-485.225037
5363.312612	407.588531	182.362946	-474.354187
5363.315942	406.828766	182.304504	-463.600220
5363.319274	406.419647	181.544708	-454.190521
5363.322610	406.068970	181.486267	-444.254791
5363.325938	404.666290	181.252487	-434.611359
5363.329272	403.438934	181.135605	-425.727661
5363.332611	401.860901	179.966690	-415.733521
5363.335961	400.399750	179.557571	-407.668060
5363.339319	398.529510	179.206894	-400.245483
5363.342615	396.483917	178.622452	-391.537109
5363.345942	395.198151	177.511978	-383.647003
5363.349275	393.444763	176.985977	-375.581543
5363.352605	391.866730	176.226196	-367.808289
5363.355945	389.762726	175.349518	-361.554657
5363.359269	387.541809	174.998840	-354.833435
5363.362600	386.372894	174.297485	-348.462891
5363.365937	384.327301	173.596146	-342.267670
5363.369271	382.164825	173.070129	-336.189362
5363.372599	380.352997	172.251907	-330.929291
5363.375942	378.541199	172.193466	-325.084747
5363.379270	376.086517	171.433670	-319.415558
5363.382603	374.683807	170.732315	-314.506165
5363.385944	372.287537	170.147873	-309.421387
5363.389269	370.709534	169.271179	-304.570435
5363.392598	368.196381	168.336060	-299.076569
5363.395932	366.443024	167.459381	-294.167175
5363.399292	364.572784	167.517838	-289.842194
5363.402597	362.059631	166.641159	-284.465210
5363.405935	360.072479	165.530685	-280.257141
5363.409270	357.910004	165.355347	-275.347748
5363.412601	355.922852	164.069550	-270.789032
5363.415934	353.818817	163.485107	-266.171844
5363.419268	351.422546	163.017532	-260.794861
5363.422601	349.376984	162.023972	-256.469879
5363.425935	347.506714	161.205734	-251.560486
5363.429282	344.993561	160.971954	-247.527771
5363.432597	343.181763	159.452377	-242.384583
5363.435927	341.311523	158.751022	-238.176514
5363.439267	339.207489	157.699020	-233.617767
5363.442598	336.285217	157.114563	-229.292816
5363.445923	334.531860	155.828751	-224.850952
5363.449264	332.661621	155.244308	-220.058441
5363.452595	329.447113	154.309174	-216.610168
5363.455944	327.459961	153.257156	-212.519012
5363.459273	325.998840	152.438934	-208.836945
5363.462600	323.427246	151.562256	-205.563995
5363.465923	321.556976	150.276443	-201.648163
5363.469260	319.336060	149.633560	-198.550568
5363.472618	317.407379	148.932205	-195.336060
5363.475925	316.004700	148.055527	-191.946228
5363.479261	314.309784	147.529526	-189.491516
5363.482590	312.848633	146.477493	-186.978363
5363.485927	311.387512	145.951492	-183.997650
5363.489258	309.049683	146.068390	-181.426056
5363.492588	308.173004	144.841034	-178.912933
5363.495926	306.770294	143.672119	-177.276459
5363.499254	305.367615	143.204559	-175.172394
5363.502588	303.906494	143.146118	-173.477509
5363.505922	303.088257	142.795441	-171.899475
5363.509275	301.451782	142.503220	-171.431915
5363.512590	300.691986	142.035660	-170.146118
5363.515928	299.756866	141.451202	-169.094086
5363.519268	298.880188	141.275864	-167.223846
5363.522584	297.243713	140.866745	-166.347168
5363.525921	296.425476	140.574524	-164.769135
5363.529251	295.665710	140.340744	-163.424896
5363.532590	294.087677	140.223846	-162.840454
5363.535918	293.503235	140.106949	-161.905334
5363.539254	291.983643	139.697845	-160.677979
5363.542585	291.457642	139.639389	-159.509064
5363.545917	290.464050	138.879593	-158.690826
5363.549253	289.938049	138.938049	-158.515472
5363.552583	289.119812	138.762711	-157.112793
5363.555921	288.009369	138.353607	-156.645233
5363.559260	287.483337	138.704269	-155.184097
5363.562579	286.898865	137.944473	-154.190536
5363.565913	285.554657	137.126251	-152.846283
5363.569249	285.203979	137.301575	-151.092926
5363.572589	283.742859	136.950912	-149.982483
5363.575916	283.275269	136.191116	-148.988892
5363.579266	283.275269	136.892471	-147.878418
5363.582582	282.223267	135.665115	-146.884857
5363.585913	281.288147	135.723557	-144.254822
5363.589251	281.054382	134.905319	-144.722382
5363.592580	279.651672	135.314438	-143.144363
5363.595916	280.119232	134.846878	-142.910583
5363.599246	279.184113	134.671539	-142.150787
5363.602614	278.950317	134.437759	-140.397430
5363.607212	278.015198	134.437759	-138.819397
5363.610595	277.664520	134.437759	-138.585632
5363.613920	277.430725	134.437759	-138.702515
5363.617283	277.080078	134.496201	-138.118057
5363.620182	276.846313	134.262421	-138.001160
5363.623859	276.612488	133.911758	-138.468719
5363.627214	277.021637	134.671539	-138.001160
5363.630111	277.196960	134.671539	-138.001160
5363.633488	277.372314	134.963760	-138.468719
5363.636828	277.255402	134.846878	-139.286957
5363.640167	277.021637	135.197540	-139.754532
5363.643423	278.248962	136.074219	-139.812988
5363.646795	278.424316	136.191116	-140.455872
5363.650090	279.008789	136.483353	-141.800110
5363.653440	279.827026	136.483353	-143.202789
5363.656787	280.177673	137.535355	-144.137924
5363.660184	280.236145	137.710693	-145.599060
5363.663524	281.054382	138.178253	-145.306824
5363.666759	280.937469	138.587387	-146.767975
5363.670089	281.872589	139.580963	-148.696671
5363.673422	282.106384	139.522507	-149.398010
5363.676775	283.275269	140.048523	-151.268265
5363.680114	284.093506	140.691422	-152.670959
5363.683492	284.911743	140.925201	-152.612503
5363.686817	285.087097	141.977203	-154.599640
5363.689714	285.496216	142.210983	-156.119232
5363.693000	286.314453	143.263016	-157.872589
5363.696332	287.249573	143.263016	-158.398590
5363.699666	288.184692	143.730576	-159.275269
5363.703020	288.652252	144.548798	-160.736420
5363.706322	290.756287	145.308594	-162.372894
5363.709663	290.639404	145.659271	-162.489777
5363.713015	292.100525	145.893051	-163.950897
5363.716345	292.275879	146.652832	-164.418457
5363.719700	292.392761	146.828171	-165.821167
5363.722997	293.503235	147.412628	-167.749847
5363.726327	294.379883	147.997086	-168.217407
5363.729658	295.373474	148.523102	-169.444763
5363.733016	296.425476	149.049088	-170.555237
5363.736325	297.068390	149.458221	-172.367035
5363.739659	297.886627	150.218002	-173.243713
5363.742995	299.113983	150.510223	-174.938629
5363.746343	300.165985	151.211578	-176.458221
5363.749678	302.211578	152.146698	-178.211578
5363.753005	302.796051	153.257156	-179.906494
5363.755903	303.906494	153.958496	-182.302734
5363.759230	305.133850	154.776749	-184.523682
5363.762566	307.062531	155.010529	-187.387512
5363.765897	308.114563	156.705444	-190.075989
5363.769232	309.458801	157.173004	-193.173584
5363.772565	311.212158	158.458801	-195.978973
5363.775892	312.439514	159.627701	-199.193451
5363.779231	314.660431	160.387497	-201.998840
5363.782560	315.887787	161.205734	-205.505554
5363.785896	318.342499	162.666855	-209.479828
5363.789233	319.862061	163.718887	-213.278778
5363.792562	321.615448	164.946243	-216.960846
5363.795893	324.011688	166.232025	-220.642883
5363.799226	325.122162	167.459381	-225.260101
5363.802560	327.167725	168.686737	-229.234375
5363.805889	329.271790	169.738754	-234.260681
5363.809291	331.025116	170.966110	-238.936310
5363.812564	332.778473	172.018127	-242.852142
5363.815894	334.239624	173.596146	-247.936890
5363.819251	336.752777	174.765060	-252.437195
5363.822560	338.506134	176.109299	-257.405029
5363.825888	340.551727	177.336655	-261.671539
5363.829226	342.655762	178.564011	-265.996490
5363.832573	344.701355	179.849792	-269.912323
5363.835887	346.630035	180.960266	-275.698425
5363.839221	347.565155	182.538284	-280.023376
5363.842556	349.786102	183.648743	-285.926361
5363.845894	351.364105	184.934555	-288.790192
5363.849222	353.351257	186.571014	-294.342499
5363.852561	354.753967	188.207489	-299.777924
5363.855889	356.507294	189.025711	-305.330231
5363.859223	358.202240	189.785507	-310.005859
5363.862571	359.604919	190.779083	-314.447693
5363.865885	361.592072	192.123322	-319.707764
5363.869222	363.754547	193.467575	-325.376984
5363.872554	365.157227	194.344254	-331.747528
5363.875894	366.150787	195.863815	-337.416718
5363.879217	367.553467	197.032730	-343.085907
5363.882551	369.131500	199.312103	-348.404449
5363.885890	371.352417	199.896561	-354.599640
5363.889217	372.229095	201.357697	-361.437744
5363.892553	373.690216	201.591476	-368.275848
5363.895882	375.151367	202.818832	-375.230865
5363.899212	376.787842	204.513748	-382.478088
5363.902551	378.132080	205.682632	-390.251343
5363.905900	379.242554	207.143784	-398.316803
5363.909213	380.002350	208.488022	-406.206909
5363.912550	382.106384	209.306259	-413.278809
5363.915886	382.515472	210.475159	-422.571625
5363.919216	383.275269	211.819412	-431.396851
5363.922550	384.151978	212.871429	-440.865021
5363.925881	384.619537	213.280533	-451.268280
5363.929217	385.613098	214.449463	-460.035065
5363.932548	385.846893	215.559921	-470.438354
5363.935885	386.431305	216.436584	-480.198730
5363.939217	386.898895	217.430161	-490.426666
5363.942547	386.548218	218.189957	-500.128571
5363.945875	386.898895	218.832855	-511.642334
5363.949247	386.139099	219.417313	-521.461121
5363.952541	384.911743	219.651077	-533.033264
5363.955881	384.210388	220.235535	-544.839233
5363.959203	383.567505	220.878433	-554.307434
5363.962553	382.164825	221.345993	-565.821106
5363.965880	380.820557	221.404434	-576.458191
5363.969206	379.417877	221.404434	-587.796570
5363.972546	377.547638	222.047348	-598.550537
5363.975879	375.560486	221.930466	-608.895325
5363.979211	373.865601	221.930466	-620.467529
5363.982544	371.410889	221.988892	-631.046143
5363.985875	368.547028	221.988892	-641.975464
5363.989222	365.683228	221.345993	-652.261841
5363.992579	363.286987	220.761536	-663.717102
5363.995879	360.189362	220.527771	-673.886597
5363.999207	356.741089	219.943314	-683.880737
5364.002537	353.760376	219.358856	-694.693115
5364.005887	350.312103	218.482193	-704.336609
5364.009201	346.396271	217.254837	-714.915222
5364.012535	341.895966	216.436584	-726.136719
5364.015871	337.746338	215.384583	-736.481567
5364.019200	332.194061	213.806564	-746.826416
5364.022536	327.401520	211.644073	-757.288147
5364.025874	322.316772	210.942719	-767.983643
5364.029208	316.998260	208.897141	-779.146667
5364.032537	311.562836	207.319122	-789.316162
5364.035890	304.841614	205.273529	-800.537659
5364.039200	298.237274	202.585037	-811.817627
5364.042537	291.282288	199.838104	-822.162415
5364.045867	283.859741	196.857391	-833.267090
5364.049200	276.729401	194.402695	-843.144348
5364.052537	268.722412	191.071304	-854.482727
5364.055875	259.721802	188.090591	-864.593811
5364.059201	250.838120	184.759216	-875.932190
5364.062532	241.311508	181.135605	-886.569214
5364.065868	231.609589	176.985977	-896.563416
5364.069202	221.498550	172.427246	-906.557556
5364.072536	210.861481	167.693161	-916.376404
5364.075861	199.815323	163.601990	-925.961365
5364.079216	187.950897	158.867920	-934.552856
5364.082532	177.255417	153.783173	-943.436523
5364.087208	152.825256	143.789017	-959.158325
5364.090536	139.850372	138.528931	-965.353577
5364.093893	127.752190	132.742844	-971.957886
5364.096786	115.595566	127.073647	-977.217957
5364.100485	102.679138	121.404449	-983.004089
5364.103829	90.288719	115.793694	-989.023987
5364.106725	76.904739	109.540039	-993.173584
5364.110065	64.280540	103.870834	-997.498535
5364.113474	51.656342	98.143196	-1001.239014
5364.116816	37.687904	92.415550	-1003.343018
5364.120057	25.180597	86.629456	-1006.031494
5364.123397	12.556402	80.843369	-1008.018677
5364.126714	0.399765	74.531273	-1010.356506
5364.130060	-12.282871	69.271194	-1010.064331
5364.133395	-24.965515	63.426647	-1010.298035
5364.136800	-37.180595	57.465225	-1011.408508
5364.140135	-49.804794	51.386906	-1011.233154
5364.143387	-61.026306	45.367039	-1009.246033
5364.146716	-73.066040	39.347164	-1008.486267
5364.150036	-84.813553	33.970192	-1006.148437
5364.153386	-96.970200	27.891876	-1004.862610
5364.156718	-108.776154	21.755114	-1002.057251
5364.159681	-120.231445	15.735243	-999.953247
5364.162970	-131.219162	9.949152	-995.686707
5364.166311	-142.966675	2.760374	-991.127991
5364.169628	-154.655762	-3.201052	-987.679687
5364.172942	-166.227936	-8.519579	-982.711853
5364.176283	-176.806534	-14.948568	-978.269958
5364.179614	-187.268280	-20.968439	-972.191711
5364.182942	-198.139084	-26.929865	-965.645813
5364.186285	-209.185257	-33.475746	-959.625916
5364.189631	-219.588531	-39.086502	-952.904724
5364.192963	-230.050262	-45.573933	-944.430176
5364.196296	-240.102844	-51.360023	-936.306213
5364.199624	-250.097015	-57.730568	-929.000549
5364.202975	-260.850983	-63.458210	-918.772583
5364.206280	-269.793091	-68.718285	-910.356506
5364.209617	-279.378143	-74.621269	-900.245483
5364.212946	-288.378723	-80.465805	-888.673279
5364.216271	-297.788422	-85.492111	-879.146667
5364.219611	-305.912323	-90.226181	-868.217346
5364.222517	-314.328461	-95.194031	-857.697205
5364.225850	-322.627716	-99.986549	-845.832825
5364.229185	-329.699585	-104.603745	-834.786682
5364.232519	-336.187012	-109.454697	-822.746887
5364.235868	-343.142029	-113.779663	-811.642334
5364.239190	-350.155457	-118.104607	-799.193420
5364.242522	-356.175354	-121.728226	-787.855042
5364.245880	-360.967834	-125.118065	-776.165955
5364.249184	-366.227936	-128.917007	-763.717102
5364.252522	-370.786682	-131.956161	-752.086487
5364.255846	-375.228516	-134.703094	-741.624756
5364.259183	-379.202820	-137.742249	-730.403259
5364.262512	-382.358856	-139.554062	-718.597290
5364.265843	-385.514893	-142.359436	-707.960205
5364.269177	-388.963196	-145.223251	-696.972534
5364.272512	-391.534790	-147.502625	-685.809448
5364.275851	-393.697235	-149.431320	-674.412598
5364.279175	-395.392151	-151.301575	-664.710632
5364.282511	-397.846863	-152.938034	-653.021606
5364.285845	-399.074249	-154.516068	-642.793640
5364.289198	-401.178223	-156.210983	-632.565735
5364.292508	-402.171814	-157.964340	-622.396240
5364.295912	-403.749878	-159.191696	-611.583862
5364.299177	-404.684998	-160.009933	-601.122131
5364.302506	-405.327850	-161.471069	-590.777283
5364.305839	-405.386322	-162.172409	-582.361145
5364.309175	-406.496765	-163.808884	-571.315002
5364.312514	-407.256561	-164.568665	-561.729980
5364.315839	-406.263000	-165.445343	-551.735840
5364.319179	-406.672119	-166.555801	-541.507874
5364.322509	-407.373444	-166.906479	-532.156616
5364.325843	-406.146118	-167.900055	-521.811768
5364.329179	-405.853912	-168.776733	-511.233215
5364.332542	-405.327850	-169.068970	-500.946838
5364.335837	-404.509644	-169.770309	-491.946259
5364.339185	-403.925201	-169.594971	-481.192291
5364.342507	-402.580933	-170.120972	-471.665680
5364.345841	-401.470490	-170.530106	-462.314453
5364.349172	-400.652222	-170.763885	-452.028076
5364.352504	-399.892456	-171.289886	-441.975464
5364.355837	-398.606659	-171.640564	-433.091766
5364.359174	-397.087067	-171.465225	-423.506744
5364.362522	-394.924622	-171.523666	-415.149048
5364.365833	-393.521912	-171.465225	-406.206909
5364.369168	-391.943909	-171.348328	-397.264771
5364.372511	-390.833435	-171.173004	-388.731750
5364.375868	-389.313843	-171.231445	-380.783173
5364.379169	-386.800690	-170.588531	-373.419037
5364.382520	-384.287567	-170.296326	-366.288727
5364.385837	-382.417328	-169.419632	-357.989471
5364.389171	-380.254822	-168.893616	-350.976044
5364.392505	-378.676819	-168.484512	-344.663971
5364.395835	-376.806549	-167.374054	-337.592072
5364.399170	-374.702515	-167.081818	-331.513733
5364.402504	-372.890717	-166.497375	-325.376984
5364.405834	-370.436005	-166.322021	-319.649353
5364.409168	-368.156647	-165.562241	-313.804810
5364.412498	-366.286377	-164.451782	-308.252472
5364.415836	-364.942139	-163.458206	-302.758636
5364.419179	-362.662750	-162.990646	-298.375214
5364.422515	-360.383392	-162.639969	-292.881378
5364.425850	-358.571594	-161.295731	-288.264191
5364.429166	-356.233795	-161.120407	-284.406769
5364.432497	-355.883118	-161.120407	-278.971344
5364.435829	-352.843933	-159.951477	-274.061951
5364.439165	-350.915253	-159.600815	-270.730560
5364.442493	-349.103455	-158.724136	-267.340729
5364.445827	-346.531860	-158.198120	-262.957336
5364.449164	-344.953827	-157.496780	-258.690826
5364.452493	-343.025116	-157.087662	-255.125671
5364.455823	-340.804199	-156.152542	-251.618927
5364.459158	-339.635284	-155.626526	-247.235535
5364.462498	-337.297485	-155.509628	-243.787262
5364.465827	-335.485687	-154.808289	-239.696106
5364.469170	-334.375214	-154.282288	-236.247803
5364.472491	-332.271179	-153.522507	-232.215088
5364.475827	-329.758057	-153.288712	-228.591461
5364.479155	-328.589111	-153.113388	-224.500305
5364.482559	-326.601990	-153.113388	-220.701355
5364.485828	-324.907074	-151.710693	-217.720642
5364.489161	-322.569275	-150.892456	-214.097015
5364.492495	-320.348328	-150.600235	-210.414978
5364.495827	-318.887207	-150.015778	-207.025116
5364.499162	-317.659851	-149.197540	-204.161316
5364.502492	-314.854462	-148.496201	-201.765045
5364.505823	-313.159546	-148.320862	-198.842773
5364.509155	-311.289307	-147.794846	-194.751617
5364.512496	-309.419067	-146.918167	-191.712433
5364.515822	-307.724121	-145.866150	-189.199310
5364.519153	-306.087677	-146.158386	-186.627716
5364.522490	-304.158966	-145.340149	-184.523682
5364.525824	-303.282288	-144.638809	-181.133850
5364.529152	-301.353577	-144.229691	-179.438934
5364.532484	-300.535370	-143.703690	-177.101105
5364.535819	-299.366455	-143.177673	-175.756866
5364.539151	-298.665100	-142.885437	-173.243713
5364.542488	-297.613098	-142.359436	-172.074829
5364.545817	-295.742828	-141.658096	-170.730560
5364.549187	-294.515472	-141.365860	-168.509644
5364.553752	-292.879028	-140.430740	-165.353577
5364.557115	-293.112793	-140.255402	-165.061371
5364.560494	-291.534790	-139.612503	-164.009338
5364.563828	-290.307434	-139.086487	-161.846863
5364.566733	-290.015198	-139.144943	-161.262421
5364.570076	-288.670959	-138.852707	-160.677979
5364.573371	-288.729401	-138.969604	-159.684387
5364.576665	-288.378723	-139.028046	-159.450623
5364.579998	-287.560486	-138.735825	-159.041504
5364.583347	-287.034485	-138.209824	-158.340149
5364.586677	-286.099365	-137.976028	-158.281708
5364.590094	-285.573364	-138.560486	-157.405029
5364.593449	-285.281128	-138.092926	-157.463470
5364.596681	-284.462860	-138.092926	-155.885437
5364.600022	-284.696655	-138.034485	-155.359436
5364.603324	-284.229095	-137.625351	-155.067215
5364.606672	-283.352417	-137.683807	-154.950317
5364.610010	-282.534180	-138.443604	-154.424316
5364.613396	-281.832855	-137.391571	-153.898315
5364.616774	-281.832855	-137.917587	-152.904724
5364.620020	-281.599060	-138.209824	-152.554077
5364.623332	-281.131500	-138.560486	-151.735825
5364.626661	-281.014587	-138.443604	-151.502045
5364.630027	-280.021027	-138.911163	-150.566925
5364.633343	-279.553467	-138.969604	-149.865570
5364.636303	-280.547028	-138.677383	-149.924026
5364.639589	-279.962616	-138.443604	-149.456451
5364.642920	-279.085907	-138.735825	-149.339569
5364.646233	-278.852112	-139.086487	-148.346008
5364.649566	-278.910583	-139.203384	-147.878418
5364.652896	-279.319672	-138.618927	-147.469315
5364.656240	-279.728821	-138.852707	-147.761536
5364.659590	-279.085907	-139.787842	-147.936874
5364.662901	-279.085907	-139.612503	-147.118652
5364.666233	-278.676788	-139.963165	-147.644653
5364.669582	-278.969025	-140.021622	-148.346008
5364.672919	-279.261261	-139.612503	-148.813568
5364.676255	-279.319672	-140.606079	-149.339569
5364.679605	-280.547028	-140.080063	-149.865570
5364.682894	-280.488617	-140.722961	-150.157806
5364.686234	-280.839264	-140.956741	-151.618942
5364.689570	-281.540619	-141.248978	-152.963181
5364.692895	-282.125061	-142.008774	-152.904724
5364.696229	-282.826416	-141.541199	-153.839859
