time (s)	magX	magY	magZ
6757.670739	-303.223846	-97.882515	-301.472839
6757.674078	-305.094086	-97.356514	-308.544708
6757.677415	-306.496765	-97.648735	-316.902405
6757.680670	-308.308594	-97.707184	-324.383392
6757.684003	-309.769714	-97.122734	-332.390442
6757.687359	-311.815308	-96.947395	-340.864990
6757.690687	-312.516663	-96.070717	-348.521332
6757.694076	-313.217987	-95.836937	-357.054352
6757.697426	-314.153107	-95.194031	-365.762726
6757.700790	-315.964935	-94.726471	-374.821747
6757.704007	-316.724731	-93.557564	-384.114563
6757.707351	-317.835175	-92.856216	-393.641144
6757.710671	-318.185852	-91.453529	-402.875519
6757.714019	-317.835175	-90.167732	-412.168335
6757.717358	-318.068970	-89.115715	-422.279388
6757.720269	-319.004089	-88.297485	-431.981293
6757.723618	-318.010529	-86.018112	-442.384552
6757.726968	-316.724731	-84.323204	-454.424316
6757.730246	-315.322021	-82.569839	-465.119812
6757.733569	-314.211578	-80.641144	-475.581543
6757.736930	-313.042664	-78.244881	-486.452362
6757.740246	-310.938629	-75.673286	-497.206329
6757.743613	-309.009918	-73.510811	-509.655182
6757.746911	-306.204559	-70.237869	-521.402710
6757.750264	-303.808289	-68.016945	-531.981262
6757.753594	-300.886017	-64.159554	-545.131470
6757.756931	-296.736389	-61.529514	-555.768555
6757.760326	-293.405029	-58.256573	-566.990051
6757.763587	-289.313843	-53.697838	-577.977722
6757.766929	-284.404449	-50.308006	-589.023926
6757.770236	-279.670380	-46.509060	-600.713013
6757.773580	-273.650482	-42.651665	-610.590271
6757.776483	-268.331970	-38.911163	-620.175293
6757.779812	-262.779663	-35.170662	-632.098145
6757.783147	-256.116882	-30.670368	-641.390991
6757.786501	-249.571014	-26.462303	-650.683777
6757.789814	-242.849792	-21.728230	-660.035034
6757.793151	-235.368805	-17.169491	-669.094055
6757.796477	-228.589111	-12.669199	-677.685547
6757.799816	-220.406799	-8.168907	-686.510803
6757.803144	-212.341324	-4.253068	-694.634644
6757.806482	-204.451202	0.188779	-702.174133
6757.809845	-196.210403	4.981297	-709.830444
6757.813143	-186.917587	10.416716	-715.499695
6757.816478	-178.150787	15.033899	-722.162415
6757.819814	-169.442429	19.826418	-727.480957
6757.823143	-159.682053	24.385155	-733.325500
6757.826482	-150.038574	28.768557	-738.118042
6757.829853	-140.687317	33.327293	-743.261230
6757.833143	-129.874924	38.762711	-747.644592
6757.836479	-119.705429	43.438343	-751.151367
6757.839815	-109.477509	48.230858	-754.891846
6757.843144	-98.898895	52.789597	-756.820557
6757.846476	-87.794281	58.225018	-760.210388
6757.849809	-76.397423	63.134426	-762.372864
6757.853141	-65.468147	68.745178	-763.424866
6757.856469	-54.129745	73.596146	-764.593811
6757.859811	-41.973114	78.564003	-764.593811
6757.863139	-30.342491	83.473412	-763.600220
6757.866468	-18.185852	88.616600	-763.833984
6757.869835	-6.321449	93.058449	-763.191101
6757.873168	5.367622	98.902985	-760.561035
6757.876476	17.407366	103.461723	-758.281677
6757.879827	30.031563	108.721809	-755.359436
6757.883144	42.947987	112.988319	-752.554016
6757.886470	54.461720	117.839279	-749.514832
6757.889802	66.793686	122.982468	-743.436584
6757.893145	77.839859	127.599648	-738.351807
6757.896471	89.821159	131.807724	-733.150208
6757.899806	101.159554	135.665115	-727.773193
6757.903132	111.855057	139.113388	-720.993591
6757.906470	123.251907	143.204559	-713.863220
6757.909803	134.005844	146.594391	-706.674438
6757.913135	144.467560	150.042664	-698.959656
6757.916472	153.877258	153.374054	-690.543518
6757.919802	163.812988	156.062531	-682.887146
6757.923150	172.813568	158.809479	-675.523010
6757.926469	182.106369	161.030396	-666.639343
6757.929838	190.171829	163.660431	-656.937439
6757.933133	197.828171	165.822922	-647.936890
6757.936474	205.718292	168.102280	-639.111633
6757.939796	212.497955	169.212753	-629.409668
6757.943129	219.511398	171.024551	-620.759766
6757.946466	226.232620	171.959671	-611.174744
6757.949797	231.843369	172.894806	-601.765015
6757.953130	238.389252	173.362366	-592.647522
6757.956466	244.000015	174.765060	-582.653381
6757.959796	249.260071	175.817078	-573.243713
6757.963127	254.227936	176.401520	-564.593811
6757.966465	258.728210	176.343079	-554.248962
6757.969797	262.585632	176.401520	-544.488586
6757.973122	266.384583	176.401520	-535.371094
6757.976462	270.592651	177.161316	-526.429016
6757.979793	274.450012	176.518417	-516.376343
6757.983126	276.904724	176.226196	-506.615997
6757.986463	280.177673	176.226196	-496.271210
6757.989801	282.924622	175.583298	-486.277039
6757.993130	285.729980	175.349518	-476.984253
6757.996457	287.950897	174.823502	-467.106934
6757.999795	289.528931	174.239044	-457.229675
6758.003164	291.983643	173.946808	-447.469299
6758.006456	293.386322	173.537704	-437.650513
6758.009805	294.613678	172.953247	-428.825256
6758.013128	296.133270	171.492111	-417.779083
6758.016454	297.126831	171.199890	-409.129181
6758.019786	297.711273	170.264755	-399.076569
6758.023122	298.178833	169.855652	-389.491547
6758.026458	298.821747	168.452957	-380.198730
6758.029784	298.354187	167.517838	-371.373474
6758.033121	298.529510	166.173599	-362.314453
6758.036455	298.412628	165.296906	-353.956757
6758.039786	297.535950	164.011108	-344.722382
6758.043126	297.535950	162.900635	-336.481598
6758.046453	297.360596	161.497955	-327.481018
6758.049786	296.191711	160.504395	-319.941559
6758.053141	295.198120	158.575699	-311.876099
6758.056453	294.438354	157.699020	-303.869080
6758.059784	293.853882	156.179428	-297.089447
6758.063121	293.035645	154.718292	-289.374634
6758.066456	291.282288	152.964935	-282.302765
6758.069784	289.996490	152.029816	-276.165985
6758.073115	288.009369	149.925781	-269.853912
6758.076452	286.431335	149.165985	-263.600220
6758.079787	285.437744	147.471069	-257.229675
6758.083119	283.450623	146.009933	-251.677399
6758.086454	282.457031	144.724152	-245.657501
6758.091132	279.593201	141.801880	-234.845123
6758.094471	277.898315	140.399185	-229.818817
6758.097409	275.911163	138.704269	-224.792511
6758.101064	274.683838	136.950912	-220.233795
6758.104407	272.696655	136.366455	-216.259491
6758.107319	270.592651	135.197540	-211.174744
6758.110684	269.131500	133.035065	-206.499115
6758.114051	267.085937	132.099945	-202.232605
6758.117372	265.390991	130.580368	-198.316772
6758.120725	263.286987	129.294556	-194.459381
6758.123969	261.884277	127.774994	-190.543549
6758.127293	260.072479	126.080078	-185.692566
6758.130637	258.377563	124.911171	-182.302734
6758.133981	256.857971	123.742264	-177.860901
6758.137313	254.344833	121.696678	-174.237274
6758.140739	253.000580	120.410873	-169.912323
6758.144059	251.188782	119.534195	-165.353577
6758.147299	249.143204	118.423729	-162.781982
6758.150632	247.039154	116.845703	-158.924622
6758.154000	245.402695	115.267685	-155.826996
6758.157303	243.357086	114.741676	-153.313843
6758.160636	242.012863	113.397430	-148.579773
6758.163550	240.201050	112.170082	-145.014618
6758.166902	237.746353	110.650497	-141.683228
6758.170271	235.759201	109.247803	-138.118057
6758.173534	233.772064	108.604912	-135.254242
6758.176866	232.252487	107.611336	-132.448853
6758.180205	230.616013	106.033318	-129.585037
6758.183547	228.745758	105.565750	-126.604324
6758.186873	227.167740	104.338402	-124.149620
6758.190204	225.414383	103.461723	-121.227356
6758.193530	223.368790	102.292816	-117.895966
6758.196902	222.433670	101.708359	-116.785507
6758.200213	220.563416	100.948570	-113.629456
6758.203579	218.810059	99.604332	-111.992989
6758.206871	217.290482	98.552315	-110.298065
6758.210194	216.004669	97.909409	-108.427818
6758.213529	214.192871	97.792519	-106.499123
6758.216866	213.257751	96.331390	-104.862656
6758.220195	211.738159	95.220924	-103.343079
6758.223526	210.803040	94.461143	-101.648155
6758.226477	210.160141	94.110466	-100.420807
6758.229770	209.108124	93.116898	-98.667442
6758.233104	208.465225	92.473991	-97.323204
6758.236435	206.302750	92.064880	-96.388077
6758.239781	205.426071	91.831100	-96.212738
6758.243126	204.841614	90.194626	-93.290474
6758.246437	203.731155	90.019287	-92.881348
6758.249774	202.737579	89.902397	-92.238457
6758.253102	201.744019	89.317947	-91.654007
6758.256430	201.042664	88.616600	-90.835770
6758.259772	200.691986	87.739922	-89.316193
6758.263101	199.756866	87.213913	-88.907074
6758.266429	199.113968	86.161896	-87.329048
6758.269766	198.412628	85.460556	-86.861488
6758.273100	197.828171	85.811226	-85.166565
6758.276437	197.419052	84.408539	-84.815895
6758.279767	196.367050	84.466988	-83.296318
6758.283110	195.665695	84.233200	-82.887199
6758.286430	194.847458	84.116310	-82.244301
6758.289767	194.730560	83.239632	-81.601402
6758.293103	193.620102	83.005852	-80.432495
6758.296434	192.158966	82.246056	-79.029800
6758.299767	192.334320	82.129166	-78.211571
6758.303129	191.340744	81.836945	-77.510223
6758.306427	190.347168	81.369377	-76.808884
6758.309758	190.054932	80.492699	-75.172409
6758.313131	189.412033	80.317360	-74.529510
6758.316430	188.886032	80.083580	-73.769730
6758.319760	188.476913	79.849800	-73.360611
6758.323095	187.717117	78.856224	-73.769730
6758.326447	187.483337	79.206902	-72.542374
6758.329760	187.132675	79.031563	-71.607246
6758.333091	185.905319	78.973114	-71.315018
6758.336429	186.197556	78.622444	-70.905899
6758.339757	186.197556	78.213333	-70.379898
6758.343090	185.788422	78.330223	-70.847458
6758.346426	185.496201	77.628876	-70.438339
6758.349758	186.255981	77.804214	-70.263000
6758.353088	185.437759	77.219757	-71.022797
6758.356433	185.496201	77.511986	-70.672119
6758.359758	185.963776	77.044426	-70.672119
6758.363115	185.963776	77.336647	-70.496780
6758.366425	185.788422	77.336647	-71.256577
6758.369759	186.431335	76.927536	-72.600815
6758.373089	185.905319	77.161316	-72.425484
6758.376422	187.015778	76.869087	-72.367035
6758.379753	187.132675	76.810646	-72.367035
6758.383091	187.541794	77.102867	-73.126831
6758.386424	187.950897	77.453537	-73.185272
6758.389758	188.009354	76.927536	-74.763298
6758.393087	188.476913	76.810646	-74.237289
6758.396419	188.944473	76.869087	-75.113968
6758.399771	189.879608	76.985977	-75.932205
6758.403088	190.405609	77.278206	-75.523087
6758.406418	190.522491	77.745766	-75.698425
6758.409756	191.457626	77.102867	-76.633545
6758.413082	192.158966	77.395096	-76.282875
6758.416413	192.977203	77.395096	-77.101105
6758.419751	192.334320	77.102867	-78.445351
6758.423096	193.620102	77.336647	-78.328461
6758.426427	193.853882	77.453537	-79.906487
6758.429748	194.789017	77.570427	-79.205139
6758.433085	195.724136	77.921104	-80.023376
6758.436455	195.607254	78.154884	-80.315598
6758.439750	196.659256	78.154884	-81.426071
6758.443084	197.302170	78.096443	-81.776741
6758.446415	197.828171	78.330223	-82.302750
6758.449750	198.880188	78.564003	-83.413208
6758.453083	199.289307	78.680893	-83.588547
6758.456412	199.990646	79.323792	-83.939209
6758.459744	200.282883	79.732910	-84.699005
6758.463076	202.094681	79.908241	-84.406776
6758.466414	202.328461	79.440681	-86.452362
6758.469744	203.731155	79.674461	-88.147285
6758.473077	204.841614	80.317360	-88.790176
6758.476409	205.601395	80.142021	-89.433083
6758.479773	206.770309	80.317360	-90.075974
6758.483098	207.997665	81.077148	-92.004677
6758.486431	208.932785	81.252487	-93.173584
6758.489742	210.043243	81.720055	-95.043831
6758.493079	211.621277	81.953835	-96.797195
6758.496411	213.199295	82.830513	-98.082993
6758.499748	215.069550	82.947403	-99.368790
6758.503077	216.355347	83.707191	-101.998833
6758.506413	217.699600	84.174759	-103.927528
6758.509740	219.394516	84.174759	-106.206894
6758.513071	221.147873	84.350098	-108.369377
6758.516405	222.959671	84.876099	-110.239624
6758.519746	224.303925	85.343658	-112.168327
6758.523092	225.881943	85.635895	-115.265923
6758.526402	228.219757	86.571014	-117.662186
6758.529745	230.206909	86.629456	-119.883110
6758.533068	232.077148	86.921692	-122.630043
6758.536407	234.181183	87.155472	-123.915840
6758.539740	235.817657	87.330803	-127.890121
6758.543077	237.746353	88.149040	-130.870850
6758.547719	241.603745	89.201057	-135.897125
6758.551031	243.415558	89.902397	-139.170074
6758.554413	245.461136	89.902397	-141.975464
6758.557745	247.740509	90.194626	-144.897720
6758.560678	249.376968	90.895973	-148.053772
6758.564006	251.773239	91.129753	-151.735825
6758.567292	253.994156	91.655762	-154.716537
6758.570594	255.455292	92.064880	-158.047913
6758.573925	257.442444	93.000000	-161.028656
6758.577276	259.371124	93.526016	-163.834015
6758.580597	261.007599	93.409119	-166.931610
6758.583988	263.286987	93.818237	-170.847473
6758.587322	264.748108	94.753365	-174.237274
6758.590650	267.436584	95.630043	-177.744019
6758.593916	270.008179	95.805382	-181.426056
6758.597254	271.644653	96.156052	-184.991241
6758.600581	273.573364	96.798950	-188.731750
6758.603939	275.969604	97.675629	-193.173584
6758.607339	278.424316	97.792519	-197.732330
6758.610690	280.469910	98.201645	-202.641724
6758.613994	282.807709	99.253654	-207.142029
6758.617270	283.801270	99.370544	-212.285217
6758.620581	286.489777	100.247223	-217.603729
6758.623911	289.002930	100.364113	-222.688477
6758.627262	291.457642	100.539452	-227.948578
6758.630165	294.146118	101.123909	-234.143768
6758.633533	296.016357	101.357689	-239.579193
6758.636843	298.587982	101.591469	-245.423706
6758.640221	300.458221	102.351257	-252.086487
6758.643482	302.796051	102.409706	-258.690826
6758.646839	305.484528	102.760376	-266.054932
6758.650158	307.237885	102.877274	-272.133240
6758.653531	309.225006	102.935707	-279.906494
6758.656817	311.153717	103.111053	-287.445953
6758.660164	313.549988	103.344833	-295.160736
6758.663486	315.595551	102.585045	-302.875519
6758.666834	317.407379	103.344833	-310.531860
6758.670159	318.751617	102.877274	-319.181793
6758.673509	320.504944	102.701927	-327.714813
6758.676844	322.199890	102.292816	-334.962006
6758.680152	324.011688	101.883698	-343.553467
6758.683481	325.122162	102.117477	-352.554047
6758.686812	325.998840	101.649910	-361.262421
6758.689726	327.401520	101.299240	-369.503204
6758.693058	327.927521	100.422562	-377.685577
6758.696408	329.271790	99.312103	-387.212158
6758.699718	329.680878	99.078316	-397.264771
6758.703058	330.323792	98.435425	-406.440704
6758.706391	331.025116	97.558739	-415.149048
6758.709720	330.849792	97.032738	-424.850983
6758.713054	330.908234	96.097610	-433.500885
6758.716384	330.908234	95.104034	-442.910614
6758.719732	330.615997	94.052017	-453.080048
6758.723051	330.206909	93.233788	-462.898895
6758.726420	329.622437	91.831100	-472.659271
6758.729720	328.979553	90.603745	-481.659882
6758.733057	327.401520	89.259499	-491.946259
6758.736387	326.349518	87.097023	-502.349487
6758.739742	324.713043	85.928116	-513.337219
6758.743050	322.375214	84.642319	-522.922241
6758.746385	320.855652	83.005852	-533.734680
6758.749720	317.991821	80.609589	-544.137878
6758.753046	315.069550	79.206902	-555.476318
6758.756379	312.205719	77.161316	-566.464050
6758.759715	308.932800	74.531273	-576.282837
6758.763051	305.075378	71.667450	-587.504395
6758.766385	300.691986	69.388084	-598.608948
6758.769717	295.607239	65.998245	-610.005798
6758.773048	291.106934	63.075977	-620.935120
6758.776383	286.139099	59.919930	-632.565735
6758.779722	279.885437	56.939213	-643.495056
6758.783112	274.625366	53.081821	-654.307434
6758.786389	267.845703	49.691994	-665.295105
6758.789721	260.715393	45.717709	-674.938599
6758.793048	253.234375	41.626534	-685.108093
6758.796376	245.987137	37.360023	-695.452942
6758.799713	237.337219	33.502628	-705.680847
6758.803044	229.154877	29.060783	-714.623047
6758.806376	220.504974	24.092928	-723.974243
6758.809709	210.978378	19.358854	-731.513733
6758.813047	201.744019	14.566336	-739.871399
6758.816376	192.275864	9.540035	-748.696655
6758.819712	181.989487	4.689071	-755.593201
6758.823049	171.819992	-1.213910	-761.963745
6758.826399	161.299835	-6.006429	-768.217407
6758.829708	150.487427	-10.915838	-773.886597
6758.833040	140.025726	-16.292812	-779.672668
6758.836378	129.096436	-21.026884	-784.815857
6758.839756	118.342491	-26.403858	-790.309753
6758.843043	107.237877	-31.313267	-792.998230
6758.846381	96.133255	-37.099358	-796.504944
6758.849706	84.736412	-41.716541	-799.076538
6758.853043	73.748688	-46.567505	-802.524780
6758.856376	62.527180	-51.418465	-803.401489
6758.859703	51.364117	-56.620106	-805.973083
6758.863043	39.441265	-61.354179	-806.206909
6758.866378	27.927528	-66.263580	-806.966675
6758.869738	16.063122	-70.880768	-806.791321
6758.873041	4.023380	-75.848625	-805.096436
6758.876374	-6.964348	-80.933372	-803.284607
6758.879706	-18.536526	-85.375214	-801.998779
6758.883035	-30.342491	-90.109291	-800.303894
6758.886370	-42.206894	-94.434250	-797.440063
6758.889701	-53.369957	-99.168320	-793.816467
6758.893039	-65.234367	-103.259491	-789.900635
6758.896367	-76.222092	-108.402687	-785.692566
6758.899714	-87.618942	-112.201630	-779.438904
6758.903032	-98.898895	-116.818817	-774.880188
6758.906373	-110.471069	-121.377548	-768.568054
6758.909701	-121.458801	-125.118065	-761.729980
6758.913067	-131.569839	-129.267685	-753.898254
6758.916372	-142.323792	-133.300415	-746.241943
6758.919700	-153.486847	-137.099365	-737.767334
6758.923039	-163.247223	-140.489182	-729.351257
6758.926362	-172.773804	-144.054352	-721.052002
6758.929700	-182.066620	-147.619522	-710.531860
6758.933031	-190.774979	-150.541779	-701.239014
6758.936366	-199.308014	-153.113388	-690.777283
6758.939702	-207.256577	-155.509628	-680.081787
6758.943038	-215.380463	-158.139679	-669.094055
6758.946363	-223.153717	-160.711273	-657.989441
6758.949694	-230.284027	-163.341324	-647.177063
6758.953031	-236.479248	-165.386902	-635.721802
6758.956386	-243.726471	-166.614258	-624.091125
6758.959703	-249.512573	-168.075394	-612.460510
6758.963043	-255.181763	-169.478073	-601.122131
6758.966368	-259.682068	-170.997665	-589.900635
6758.969700	-264.065460	-171.874344	-578.971313
6758.973028	-269.384003	-173.277023	-567.340698
6758.976363	-272.832275	-173.043243	-556.820557
6758.979691	-275.929871	-173.861481	-545.774353
6758.983028	-278.969025	-174.562820	-533.851562
6758.986364	-282.884857	-174.855057	-523.272949
6758.989691	-285.281128	-175.673294	-513.687927
6758.993030	-287.735840	-175.439514	-501.881958
6758.996365	-289.722961	-174.971954	-490.192871
6758.999724	-291.593201	-174.971954	-479.731171
6759.004369	-294.398590	-174.738159	-458.690826
6759.007717	-295.216827	-173.919922	-448.579773
6759.011015	-296.736389	-173.043243	-438.468719
6759.014322	-297.554657	-171.991226	-428.299225
6759.017648	-298.255981	-171.582108	-418.363525
6759.020571	-298.431305	-170.763885	-408.603180
6759.023971	-298.431305	-170.004089	-399.193451
6759.027269	-298.372894	-169.068970	-389.082397
6759.030611	-298.372894	-167.666275	-378.796021
6759.033867	-297.671539	-166.848038	-369.737000
6759.037202	-297.203949	-165.270020	-359.742859
6759.040552	-297.203949	-163.808884	-351.560486
6759.043936	-297.028625	-162.698425	-341.917023
6759.047303	-295.333710	-161.529510	-333.384003
6759.050618	-294.340149	-160.652832	-323.623627
6759.053925	-293.814148	-158.607239	-314.272369
6759.057199	-292.294556	-156.912323	-305.563995
6759.060538	-290.599640	-155.509628	-296.914093
6759.063891	-289.255402	-153.639389	-288.907074
6759.067241	-288.495605	-152.119812	-280.724701
6759.070597	-285.573364	-151.418472	-273.126831
6759.073947	-284.229095	-149.372879	-266.697845
6759.077267	-281.832855	-148.320862	-258.281708
6759.080531	-279.261261	-146.859726	-250.508484
6759.083444	-278.150787	-145.164810	-244.137939
6759.086780	-275.696075	-143.177673	-237.416718
6759.090111	-273.825836	-141.482758	-230.052612
6759.093454	-271.312683	-139.846283	-224.500305
6759.096779	-268.916443	-138.969604	-217.837524
6759.100125	-266.870819	-137.742249	-211.116302
6759.103455	-264.708344	-135.872009	-205.797760
6759.106797	-263.013458	-134.118637	-200.946808
6759.110105	-260.149628	-133.125061	-195.219177
6759.113447	-258.104034	-131.430161	-190.251312
6759.116777	-256.233795	-129.676788	-185.809479
6759.120110	-253.895966	-128.624786	-180.666290
