time (s)	magX	magY	magZ
6445.221514	-244.194061	-96.246048	-145.306824
6445.224853	-246.064301	-96.947395	-147.761536
6445.227763	-248.752777	-97.999413	-151.092926
6445.231075	-250.097015	-98.291641	-154.424316
6445.234416	-252.727051	-98.992989	-157.521912
6445.237743	-254.129730	-100.161896	-160.619507
6445.241077	-256.935120	-101.155457	-164.535370
6445.244408	-258.454712	-102.090584	-168.217407
6445.247739	-260.500275	-103.201050	-172.308594
6445.251073	-263.539459	-103.084152	-176.633545
6445.254403	-265.526611	-104.428398	-180.958496
6445.257737	-267.689087	-104.895958	-185.166565
6445.261069	-269.793091	-105.889534	-189.433075
6445.264401	-272.247803	-107.000000	-194.225616
6445.267738	-274.351837	-108.052010	-198.609009
6445.271090	-277.624786	-108.461128	-204.278198
6445.274403	-279.553467	-109.220917	-209.655182
6445.277736	-281.832855	-110.915840	-214.973694
6445.281071	-283.527740	-111.383400	-220.467560
6445.284401	-286.391571	-112.318527	-225.727661
6445.287738	-289.196960	-112.844536	-232.624207
6445.291068	-291.300995	-113.545883	-238.118042
6445.294466	-293.463470	-113.838097	-244.547058
6445.297728	-296.093506	-114.773224	-250.917603
6445.301069	-299.191101	-115.416130	-257.638794
6445.304407	-300.944458	-116.117477	-264.301575
6445.307735	-303.165405	-116.701920	-271.256592
6445.311065	-304.860321	-117.344833	-278.036224
6445.314424	-307.198151	-117.695496	-285.751038
6445.317731	-309.302155	-117.344833	-293.348938
6445.321068	-311.172394	-117.695496	-300.596130
6445.324401	-313.744019	-117.637047	-308.778503
6445.327740	-315.263611	-118.221504	-316.259491
6445.331063	-317.542938	-118.396843	-324.383392
6445.334395	-319.179443	-117.403267	-331.864410
6445.337725	-321.867920	-117.695496	-340.923462
6445.341061	-322.335480	-116.760368	-349.281128
6445.344395	-324.439514	-116.760368	-357.405060
6445.347721	-325.900635	-116.175926	-365.704285
6445.351056	-326.952667	-116.877266	-374.880188
6445.354391	-328.296906	-116.175926	-383.121002
6445.357764	-328.822906	-115.591461	-392.472260
6445.361059	-329.699585	-114.948570	-401.297516
6445.364396	-330.810028	-114.481003	-410.590302
6445.367730	-331.336060	-114.597893	-420.292236
6445.371068	-331.862061	-113.604317	-429.000580
6445.374392	-331.745178	-113.428986	-439.754547
6445.377726	-332.271179	-112.961418	-449.339569
6445.381057	-332.446533	-112.201630	-458.983063
6445.384394	-331.978943	-111.500282	-468.743439
6445.387727	-331.628296	-110.915840	-478.796021
6445.391056	-330.751617	-110.156044	-489.959076
6445.394385	-329.232025	-109.337814	-501.531281
6445.397727	-328.764465	-108.519577	-512.460510
6445.401077	-327.244904	-107.350670	-523.623596
6445.404388	-325.433075	-105.889534	-534.845154
6445.407722	-323.095276	-104.428398	-546.066589
6445.411054	-321.400360	-103.259491	-557.989441
6445.414391	-318.478088	-101.681465	-568.743408
6445.417723	-315.029816	-99.226768	-581.016907
6445.421055	-311.990631	-97.181175	-593.348877
6445.424385	-307.957916	-95.603149	-604.161316
6445.427720	-303.749847	-92.739326	-615.616577
6445.431088	-298.957336	-89.758621	-627.305664
6445.434388	-294.281708	-87.187019	-638.994751
6445.437718	-289.430725	-83.797188	-649.690186
6445.441050	-284.112213	-80.232025	-661.496155
6445.444410	-278.092346	-76.608414	-672.250122
6445.447717	-271.137360	-73.335472	-682.185852
6445.451049	-265.234375	-68.835175	-693.524231
6445.454386	-258.220917	-64.276443	-703.343079
6445.457723	-251.616577	-60.126823	-713.044983
6445.461046	-243.843353	-55.217415	-723.039124
6445.464383	-236.187012	-50.308006	-732.507263
6445.467715	-228.530701	-45.398598	-741.098755
6445.471047	-219.822327	-40.255409	-750.333130
6445.474382	-211.289307	-34.878433	-757.229675
6445.477716	-202.522507	-29.793690	-765.002930
6445.481042	-193.405029	-24.241381	-771.841003
6445.484385	-183.995316	-19.565752	-778.796021
6445.487714	-174.877853	-13.954998	-785.517212
6445.491041	-164.357681	-8.519579	-791.420227
6445.494378	-154.597305	-3.376388	-796.855652
6445.497711	-144.310928	1.708358	-802.466370
6445.501057	-133.498535	7.436002	-806.323792
6445.504381	-122.393921	12.696083	-810.648743
6445.507711	-111.873749	17.663939	-814.915222
6445.511050	-101.295135	22.573347	-817.954407
6445.514380	-88.904724	27.599649	-820.935120
6445.517710	-77.332550	32.509060	-823.915833
6445.521045	-66.169495	37.301579	-825.318542
6445.524378	-54.129745	42.327877	-827.597839
6445.527704	-42.148453	46.711281	-828.591431
6445.531048	-29.758034	51.445351	-829.351257
6445.534376	-17.659847	56.120979	-829.760376
6445.537705	-4.918758	60.562832	-828.182312
6445.541115	6.828754	65.238457	-827.773193
6445.544403	19.160727	70.089424	-825.961365
6445.547707	31.668032	74.355934	-823.506714
6445.551041	44.409119	78.856224	-820.409119
6445.554380	56.857979	83.414963	-819.064880
6445.557708	69.014610	87.739922	-815.032166
6445.562325	93.327881	96.565170	-804.745728
6445.565739	105.250732	101.708359	-799.602539
6445.569076	116.764465	105.331970	-792.296875
6445.571958	128.044418	110.241379	-787.562805
6445.575293	139.324371	115.150787	-779.906433
6445.578973	150.896545	118.832855	-772.133240
6445.581900	160.773819	123.391586	-763.950867
6445.585245	171.235535	127.774994	-756.469849
6445.588607	181.171249	131.164810	-748.462891
6445.591966	190.697845	135.139099	-739.170044
6445.595290	199.932205	138.996490	-729.643433
6445.598608	208.406784	142.503220	-720.233765
6445.601876	216.706024	145.367035	-710.765625
6445.605222	225.355927	148.347748	-700.888367
6445.608572	232.778503	151.503799	-690.192810
6445.611922	239.324371	154.776749	-680.198730
6445.615292	247.156052	157.699020	-670.263000
6445.618618	253.292801	159.919937	-660.502625
6445.622000	259.254242	162.140854	-649.456421
6445.625240	265.390991	164.244888	-638.702454
6445.628554	270.943298	165.355347	-627.714783
6445.631938	276.144958	167.342499	-616.785461
6445.635225	280.352997	168.803619	-606.440613
6445.638151	284.677979	169.855652	-596.388062
6445.641477	289.236694	170.673874	-585.458740
6445.644803	292.801880	171.258331	-575.581482
6445.648210	297.594391	171.842773	-565.411987
6445.651461	300.691986	172.193466	-554.833435
6445.654806	304.023376	172.251907	-545.306824
6445.658120	307.530090	173.070129	-534.903564
6445.661459	309.984802	172.661026	-524.266479
6445.664787	312.790192	172.076569	-514.447693
6445.668120	315.127991	171.784348	-504.628876
6445.671471	316.998260	171.433670	-494.634705
6445.674833	318.693176	170.849213	-484.991241
6445.678128	321.206299	170.147873	-474.763336
6445.681463	321.732300	169.855652	-464.652283
6445.684794	323.251892	169.388077	-454.833435
6445.688112	324.479248	168.803619	-444.897736
6445.691450	325.297485	167.693161	-435.195801
6445.694793	325.940369	167.050262	-425.493866
6445.698130	325.940369	166.524261	-416.376404
6445.701019	326.057281	166.115143	-407.258911
6445.704383	325.589722	164.829346	-398.316803
6445.707692	325.823517	164.829346	-389.316193
6445.711028	325.823517	163.426651	-380.257172
6445.714363	325.122162	162.491531	-371.081238
6445.717700	324.654572	161.439514	-361.846893
6445.721019	323.018127	160.679718	-353.722992
6445.724355	322.784332	160.153717	-345.891296
6445.727701	321.381653	159.510818	-337.475159
6445.731017	319.803619	158.225021	-328.942139
6445.734353	318.693176	157.523666	-320.993561
6445.737692	317.173584	156.997665	-313.571014
6445.741019	315.653992	155.361191	-305.973114
6445.744356	313.959076	155.127411	-299.018127
6445.747688	311.971954	153.841614	-292.296906
6445.751019	309.867920	153.140274	-285.692566
6445.754350	308.523651	152.029816	-279.088257
6445.757688	306.068970	150.627121	-272.016357
6445.761021	304.549377	150.159561	-265.879608
6445.764352	302.796051	149.049088	-259.742859
6445.767684	300.691986	148.055527	-254.132080
6445.771018	298.529510	146.652832	-248.053772
6445.774355	296.659241	145.834610	-242.735229
6445.777714	294.964355	144.431915	-237.942719
6445.781017	293.152557	142.853897	-232.039734
6445.784360	291.516052	142.035660	-226.428986
6445.787681	289.002930	140.106949	-222.688477
6445.791034	287.366455	138.645813	-218.129761
6445.794347	285.320862	137.360031	-213.454132
6445.797684	283.859741	135.782013	-209.362946
6445.801014	281.931030	134.203979	-204.921112
6445.804351	279.417877	133.327301	-200.713043
6445.807682	278.132080	132.450623	-196.855621
6445.811019	276.437164	130.872604	-192.296906
6445.814348	274.508484	130.171249	-188.790192
6445.817685	272.638245	128.359436	-185.049683
6445.821037	271.060211	126.898300	-181.016968
6445.824346	269.131500	126.196960	-176.867340
6445.827679	267.085937	125.028053	-174.529510
6445.831016	265.507874	123.391586	-170.905914
6445.834350	264.046753	121.755112	-167.048523
6445.837676	261.942749	120.235542	-163.775574
6445.841017	260.189392	118.891289	-160.444183
6445.844345	258.845123	118.423729	-156.586792
6445.847678	256.682648	116.962601	-154.307419
6445.851012	254.578613	115.852135	-150.859146
6445.854345	252.883698	115.501465	-147.819992
6445.857681	250.721222	113.981880	-144.021042
6445.861008	249.026306	113.748100	-141.624786
6445.864367	246.980728	111.994743	-138.702515
6445.867677	245.402695	111.351837	-136.364685
6445.871004	243.064880	111.293404	-134.202225
6445.874336	242.012863	109.949150	-131.279953
6445.877673	239.967270	109.306252	-129.292816
6445.881010	238.272354	108.371132	-127.013443
6445.884342	235.992981	107.728233	-124.675629
6445.887672	235.233200	106.793106	-122.863823
6445.891006	233.421387	107.260674	-119.766220
6445.894339	232.018707	106.500877	-118.480423
6445.897674	230.616013	105.624199	-115.908829
6445.901013	228.745758	105.156639	-113.921684
6445.904340	227.693741	104.630630	-112.928108
6445.907712	225.998840	103.637054	-111.233192
6445.911005	225.297501	103.286392	-109.830505
6445.914336	223.777908	102.643494	-108.661598
6445.917673	223.135010	101.942146	-106.966690
6445.921025	221.440094	101.299240	-105.213326
6445.924341	220.563416	100.831680	-104.862656
6445.927668	219.219162	100.247223	-103.693748
6445.931004	218.576263	99.428993	-101.355927
6445.934346	217.582703	98.902985	-101.472816
6445.937669	216.238464	98.376976	-100.128578
6445.941001	215.829346	97.909409	-99.368790
6445.944339	215.478668	97.324959	-97.790764
6445.947665	214.251328	96.798950	-97.264755
6445.951023	214.017532	96.272942	-97.030975
6445.954334	213.491531	96.039162	-95.160721
6445.957670	212.673294	95.162483	-94.342491
6445.961037	211.212158	94.344246	-93.407364
6445.964335	211.153717	93.818237	-93.115135
6445.967666	210.686157	93.350677	-92.063118
6445.970998	210.043243	93.116898	-92.004677
6445.974332	209.458801	92.064880	-91.303329
6445.977668	208.523666	92.006432	-90.368210
6445.980997	208.406784	91.831100	-89.608414
6445.984332	207.939209	92.240211	-88.790176
6445.987662	207.588547	91.363533	-88.614845
6445.990998	206.653427	91.129753	-87.387497
6445.994349	206.653427	90.311516	-85.926361
6445.997665	206.478088	90.136177	-84.991234
6446.000992	205.659851	89.902397	-85.926361
6446.004327	204.724731	89.785507	-85.984802
6446.007666	204.257156	90.253067	-84.815895
6446.010994	204.023376	89.843956	-84.523666
6446.014324	204.374039	89.902397	-83.705429
6446.017658	203.848053	89.902397	-83.646988
6446.020997	203.205139	89.493286	-83.588547
6446.024345	202.854477	89.960846	-83.354759
6446.028933	202.854477	89.960846	-82.594971
6446.032291	202.620697	89.259499	-83.004089
6446.035672	202.679138	89.551727	-82.770309
6446.039036	202.036240	89.610176	-82.945648
6446.042359	202.153122	89.727066	-83.004089
6446.045667	202.211578	90.194626	-82.828751
6446.048968	202.679138	89.902397	-82.653412
6446.051872	202.620697	89.902397	-82.594971
6446.055186	203.029800	90.486855	-83.179428
6446.058523	202.854477	90.136177	-83.296318
6446.061912	203.848053	90.194626	-84.056107
6446.065240	204.081833	90.720634	-84.289886
6446.068521	204.549393	89.902397	-84.231445
6446.071847	204.549393	90.194626	-85.341904
6446.075169	204.958511	90.720634	-85.283463
6446.078516	205.893631	90.194626	-86.393921
6446.081887	206.185867	90.369957	-86.686142
6446.085262	206.887207	90.545303	-86.978378
6446.088591	207.004089	90.837524	-88.439507
6446.091900	208.172989	91.012863	-88.731735
6446.095188	208.932785	90.837524	-89.199295
6446.098498	209.809464	91.188194	-90.368210
6446.101847	210.277023	90.603745	-92.472237
6446.105187	210.978378	91.305084	-92.589127
6446.108576	211.679718	91.889542	-92.530685
6446.111916	212.030396	91.421974	-94.284050
6446.115269	213.491531	92.064880	-94.634720
6446.118129	214.368210	92.064880	-96.329628
6446.121407	214.718887	91.831100	-96.797195
6446.124774	216.530685	92.649330	-97.615425
6446.128077	216.647568	92.532440	-97.790764
6446.131406	217.524261	93.116898	-99.485680
6446.134737	219.277618	93.292229	-100.479256
6446.138098	219.745178	94.402695	-101.940384
6446.141450	220.504974	94.519585	-102.992401
6446.144757	221.790756	94.987144	-103.810638
6446.148078	222.842789	95.279373	-105.739334
6446.151397	223.894806	96.506721	-106.966690
6446.154741	224.771484	97.091179	-107.960258
6446.158084	226.583282	97.675629	-109.596725
6446.161410	227.518417	98.318535	-111.174751
6446.164735	228.862656	98.552315	-112.402107
6446.168076	230.265335	99.487442	-114.155464
6446.171429	231.083572	99.955002	-116.142609
6446.174757	232.427826	100.597900	-118.129753
6446.178089	233.830505	100.948570	-119.415550
6446.180980	235.525421	102.000587	-121.461136
6446.184308	236.577454	102.994156	-122.922264
6446.187647	238.447693	103.753952	-125.026299
6446.190977	239.090591	103.870834	-127.188782
6446.194313	241.545303	104.864410	-130.286377
6446.197647	242.889526	105.507309	-132.507309
6446.200975	244.759781	106.500877	-135.604919
6446.204345	246.162476	106.617775	-137.825836
6446.207642	248.149612	107.786682	-140.864990
6446.210983	249.669205	108.254242	-142.969025
6446.214308	252.007019	108.663361	-145.891296
6446.217643	253.292801	109.072472	-148.462891
6446.220978	255.864410	109.598488	-152.670959
6446.224309	257.150208	110.475159	-154.716537
6446.227635	259.371124	110.650497	-158.106369
6446.230969	262.001160	111.468735	-161.554657
6446.234304	262.994751	111.994743	-165.061371
6446.237635	265.683228	112.286972	-168.568085
6446.240989	267.436584	112.754539	-172.133240
6446.244313	269.715942	113.923447	-175.815308
6446.247672	271.819977	114.040329	-178.971344
6446.250977	273.748688	114.917007	-182.828766
6446.254317	275.677368	115.267685	-187.329041
6446.257642	277.956757	116.436592	-191.069550
6446.260968	280.236145	116.962601	-195.745178
6446.264305	282.281708	117.839279	-199.485687
6446.267637	284.444214	118.715958	-204.336639
6446.270967	287.191101	119.475746	-208.310944
6446.274306	289.178253	120.235542	-213.278778
6446.277634	291.048523	121.755112	-218.129761
6446.280970	293.210999	121.988892	-222.396271
6446.284300	295.256592	123.508484	-227.305664
6446.287634	297.302155	124.502052	-231.981293
6446.290986	299.289307	125.320282	-237.358276
6446.294300	300.984222	126.080078	-243.378143
6446.297633	303.322021	127.482765	-248.462891
6446.300986	304.666290	128.534775	-254.541199
6446.304293	306.594971	129.703674	-260.093506
6446.307634	308.348328	130.638809	-266.171844
6446.310964	310.335480	130.872604	-272.016357
6446.314294	312.556396	132.567505	-277.743988
6446.317630	314.485107	133.561081	-285.283478
6446.320967	316.238464	134.203979	-290.894226
6446.324301	318.225616	135.548218	-297.849243
6446.327632	320.095856	136.132675	-305.037994
6446.330968	321.323212	137.301575	-311.993011
6446.334324	323.427246	137.944473	-319.766205
6446.337628	325.180603	138.178253	-327.481018
6446.340968	326.232605	139.171829	-335.604919
6446.344292	327.343079	139.405609	-342.735260
6446.347624	329.213318	140.282303	-351.618927
6446.350963	330.148437	140.223846	-360.151947
6446.354295	332.194061	140.516083	-368.626556
6446.357627	333.304504	140.749863	-377.860901
6446.360960	334.648743	140.808304	-386.510834
6446.364298	335.642334	140.749863	-395.978973
6446.367627	335.642334	140.165405	-404.628876
6446.370963	337.045013	140.106949	-413.746368
6446.374290	336.811218	139.814743	-423.565186
6446.377655	337.746338	139.405609	-434.377563
6446.380963	337.571014	138.879593	-443.787262
6446.384300	337.161896	138.295151	-454.073639
6446.387619	337.045013	137.827591	-464.360016
6446.390962	336.869690	136.834015	-474.354187
6446.394285	336.460541	136.074219	-485.049713
6446.397620	335.700745	135.665115	-494.810089
6446.400953	335.174744	135.197540	-505.388672
6446.404294	333.187622	133.794861	-515.908813
6446.407627	331.551117	132.801285	-526.429016
6446.410955	330.323792	132.392166	-537.416687
6446.414292	328.044434	131.281708	-548.287537
6446.417621	324.946808	129.528336	-558.866089
6446.421016	322.492096	128.651672	-570.204529
6446.424285	319.336060	127.248978	-580.432434
6446.427639	316.355347	125.787842	-591.361755
6446.430955	312.497955	125.203400	-602.174133
6446.434290	308.406799	122.748688	-613.512573
6446.437622	303.497375	121.813560	-624.558716
6446.440955	299.464630	119.417297	-635.838623
6446.444285	294.204559	117.956161	-646.066589
6446.447620	288.769135	116.904152	-656.469849
6446.450953	283.275269	114.800125	-667.457642
6446.454289	277.839844	112.871422	-677.977722
6446.457620	270.884857	110.182930	-689.433044
6446.460952	264.748108	107.611336	-699.661011
6446.464285	257.617767	105.624199	-709.947388
6446.467613	250.312103	102.175926	-719.532410
6446.470956	241.895966	99.487442	-728.883667
6446.474282	233.713623	96.214500	-739.520752
6446.477616	225.355927	92.064880	-747.586182
6446.480983	216.706024	89.084160	-756.937439
6446.484283	208.231445	84.700768	-764.769104
6446.487616	198.178848	80.200470	-774.295715
6446.490944	187.892471	75.933960	-782.302734
6446.494284	179.008759	71.316772	-789.959045
6446.497611	168.313263	66.465813	-797.498535
6446.500948	157.851547	61.205727	-804.102844
6446.504285	146.746918	56.120979	-811.934509
6446.507642	136.168335	50.510227	-818.363525
6446.510948	125.706604	44.782585	-823.740479
6446.514281	114.075974	39.171829	-828.708313
6446.518954	90.814728	28.242548	-838.644043
6446.522275	79.417885	22.281120	-841.858582
6446.525643	67.378143	16.319696	-845.715881
6446.528960	55.279953	10.416716	-847.060181
6446.531853	43.473991	4.805962	-848.872009
6446.535621	30.908241	-1.973700	-851.092896
6446.538483	18.400936	-7.701345	-852.086426
6446.541858	6.711864	-13.136761	-852.554016
6446.545213	-5.678547	-18.279955	-851.852722
6446.548466	-18.419636	-24.299826	-851.677307
6446.551831	-30.576271	-29.384573	-849.690247
6446.555119	-43.375801	-34.936878	-848.170654
6446.558488	-55.415543	-39.787846	-845.189941
6446.561817	-67.455284	-44.989479	-842.618347
6446.565212	-79.144363	-49.781998	-838.585571
6446.568516	-91.300995	-54.165401	-835.546387
6446.571811	-102.756287	-59.074810	-830.344788
6446.575109	-114.211578	-63.808880	-826.019836
6446.578453	-125.316177	-68.016945	-819.123291
6446.581807	-137.472824	-72.634125	-813.395630
6446.585132	-147.876083	-75.965515	-806.615967
6446.588519	-158.922256	-80.699593	-799.661011
6446.591862	-168.624207	-84.089417	-791.595520
6446.594744	-179.436584	-87.829918	-783.179443
6446.598457	-189.138519	-91.804207	-774.646362
6446.601369	-198.723541	-95.953827	-766.756226
6446.604704	-206.964340	-99.285210	-757.171204
6446.608024	-216.140259	-102.791924	-748.346008
6446.611357	-225.082428	-106.181763	-738.936279
6446.614698	-233.030975	-109.805382	-729.175903
6446.618055	-241.271790	-112.786087	-717.954407
6446.621375	-248.635895	-115.942139	-708.252502
6446.624707	-255.590881	-119.682640	-697.089355
6446.628020	-262.721222	-123.423141	-686.043213
6446.631375	-268.857971	-126.520752	-675.055481
6446.634699	-274.527191	-129.033890	-664.827576
6446.638062	-280.780823	-131.897720	-653.606079
6446.641358	-285.514893	-135.345993	-641.741638
6446.644686	-290.424316	-137.566925	-629.877258
6446.648022	-294.690826	-140.430740	-618.421936
6446.651365	-299.074219	-141.599640	-607.434204
6446.654701	-302.873169	-144.288132	-596.095825
6446.658036	-306.379883	-146.625946	-584.699036
6446.661397	-309.009918	-148.028641	-572.659241
6446.664688	-312.516663	-149.898880	-561.846863
