time (s)	magX	magY	magZ
3872.896166	-64.120987	458.970184	-552.326721
3872.899474	-61.374046	460.489777	-536.312683
3872.902814	-58.510231	461.015778	-520.824646
3872.906178	-55.646408	460.139099	-506.213287
3872.909480	-52.957924	459.788452	-490.959076
3872.912833	-50.269440	459.203979	-477.399750
3872.916142	-47.230278	458.093536	-463.548187
3872.919473	-45.126244	455.755737	-450.047333
3872.922809	-42.554649	454.060822	-436.604889
3872.926155	-39.924606	451.898315	-424.156036
3872.929473	-37.995911	449.794281	-411.356506
3872.932810	-35.132088	446.930481	-399.199890
3872.936138	-33.320282	443.774445	-386.458801
3872.939475	-31.333145	441.378143	-374.185272
3872.942804	-29.346001	437.812958	-362.963776
3872.946138	-27.592636	434.306274	-351.859131
3872.949472	-25.430161	430.565765	-339.819397
3872.952808	-23.793690	426.065460	-329.065460
3872.956169	-22.274113	422.208099	-318.720612
3872.959465	-20.754532	417.824677	-308.901794
3872.962816	-19.176506	413.207489	-298.323181
3872.966139	-17.656929	409.408539	-287.978363
3872.969481	-17.130917	405.142059	-278.568665
3872.972803	-15.903568	400.758636	-269.860321
3872.976134	-14.559322	395.907654	-260.567505
3872.979472	-13.215080	390.647583	-251.917603
3872.982808	-13.273525	386.147278	-242.975449
3872.986132	-12.279953	380.595001	-234.617767
3872.989470	-11.344830	376.094696	-226.961426
3872.992802	-10.234367	371.068390	-219.188202
3872.996134	-9.357689	366.801880	-211.765640
3872.999491	-9.123905	360.957367	-204.518417
3873.002805	-9.007015	356.573944	-196.803619
3873.006133	-8.130337	351.313873	-190.433090
3873.009465	-7.721218	347.456482	-184.530106
3873.012801	-7.487438	342.254822	-178.627121
3873.016133	-6.376976	337.579193	-173.133255
3873.019470	-5.909412	332.786682	-167.054947
3873.022803	-5.441845	329.221497	-162.613098
3873.026128	-4.214493	324.370544	-157.119232
3873.029490	-4.156048	320.045593	-153.144943
3873.032815	-3.863823	315.603760	-147.475754
3873.036130	-3.045589	311.220367	-142.800125
3873.039465	-1.759792	307.362946	-139.234955
3873.042838	-2.052017	303.739349	-134.910004
3873.046132	-1.584454	300.057281	-130.643494
3873.049465	-0.941555	296.199890	-126.669205
3873.052792	-0.883110	292.868530	-123.688484
3873.057451	0.578022	285.445953	-116.850380
3873.060401	0.402687	282.114563	-113.343658
3873.064146	1.220921	278.257172	-110.596725
3873.067061	1.571594	275.510223	-107.616013
3873.070464	2.039158	271.769745	-104.226181
3873.073649	2.682056	268.496796	-101.654587
3873.076985	3.383398	265.574524	-98.323204
3873.080322	3.617184	262.243134	-96.043831
3873.083664	3.617184	259.087067	-92.478668
3873.087042	3.675629	256.164825	-91.075981
3873.090411	4.143190	253.476318	-88.329048
3873.093718	4.201637	250.963165	-85.348335
3873.096984	4.961426	248.274689	-82.133842
3873.100340	4.376972	245.293976	-81.198715
3873.103638	4.902981	242.722382	-77.808884
3873.107000	4.961426	239.566330	-76.756866
3873.110345	4.902981	236.760956	-73.893044
3873.113720	5.604324	233.780243	-71.905907
3873.117053	5.078316	231.734665	-69.684982
3873.120432	5.312098	229.104630	-67.814728
3873.123647	4.961426	227.059036	-66.061363
3873.126546	4.844536	224.136765	-63.548218
3873.129927	5.604324	221.915817	-62.437759
3873.133213	5.019871	219.344238	-60.333725
3873.136544	4.961426	217.999985	-58.872589
3873.139872	5.312098	215.662170	-56.885445
3873.143227	5.838106	214.142609	-56.417885
3873.146560	5.662769	211.629456	-54.839859
3873.149893	5.604324	209.876099	-53.904732
3873.153239	5.838106	208.707184	-52.092926
3873.156550	6.071888	206.427826	-50.865578
3873.159876	6.071888	204.908234	-50.514904
3873.163218	6.013441	203.213318	-48.819988
3873.166546	6.539450	201.752197	-48.060200
3873.169875	6.364113	200.349503	-46.832848
3873.173227	6.948566	199.005249	-46.423729
3873.176548	7.357685	197.544128	-45.780830
3873.179876	7.123903	196.550552	-45.663940
3873.183253	6.948566	195.264755	-44.319695
3873.186133	7.007013	193.978958	-43.559906
3873.189448	7.182348	193.102280	-43.033897
3873.192780	7.942139	192.459381	-42.858562
3873.196144	8.000584	191.173584	-41.981880
3873.199474	8.059029	189.946228	-41.338985
3873.202781	8.409700	189.244888	-40.462303
3873.206114	8.526590	188.192871	-40.403858
3873.209453	8.468145	187.374634	-39.644066
3873.212781	8.468145	186.264160	-39.176506
3873.216108	8.643482	185.387482	-37.949154
3873.219447	8.643482	184.335480	-38.650497
3873.222780	8.409700	183.809464	-38.124489
3873.226113	9.052599	183.108124	-38.007599
3873.229446	9.227936	181.939209	-36.780247
3873.232777	9.111044	181.179428	-36.429573
3873.236107	9.870834	181.062546	-35.494446
3873.239445	9.461716	180.244293	-35.494446
3873.242791	9.987724	179.016937	-35.669785
3873.246112	10.221506	178.549377	-34.267097
3873.249448	10.046169	178.198715	-34.091759
3873.252780	9.812389	177.672699	-33.916424
3873.256107	10.163061	177.438919	-34.091759
3873.259441	10.163061	176.445343	-34.033314
3873.262776	10.396843	175.919342	-33.098190
3873.266110	9.812389	175.860901	-32.513733
3873.269442	9.578608	175.860901	-31.987726
3873.272771	9.929279	175.276443	-32.279953
3873.276113	9.987724	175.685562	-32.338398
3873.279495	10.163061	174.867325	-32.689072
3873.282778	10.338398	175.334885	-32.396843
3873.286112	9.520163	175.510223	-32.747517
3873.289440	10.513735	175.510223	-32.630627
3873.292774	10.221506	175.568665	-32.922852
3873.296109	9.929279	175.802460	-32.572182
3873.299433	10.689070	176.153122	-32.805962
3873.302808	10.747515	175.977783	-32.572182
3873.306102	10.338398	176.094681	-32.981297
3873.309438	11.331968	175.919342	-33.507305
3873.312768	11.565750	176.211563	-33.273525
3873.316107	11.682640	177.088242	-33.624199
3873.319438	11.448860	177.731155	-33.799534
3873.322768	12.150204	178.374054	-34.150204
3873.326103	12.559320	178.900055	-34.033314
3873.329433	12.559320	179.192291	-35.319111
3873.332765	12.676212	179.601410	-35.436005
3873.336099	13.026884	180.361191	-35.903564
3873.339434	13.026884	181.004089	-37.014027
3873.342762	13.903563	182.348328	-36.721802
3873.346114	14.488016	183.108124	-37.364700
3873.349448	14.020454	183.692566	-37.656925
3873.352775	14.137344	184.686142	-38.358269
3873.356101	14.780243	185.153702	-39.293396
3873.359432	15.423143	186.264160	-39.702515
3873.362764	15.423143	187.082413	-40.228523
3873.366095	15.481588	187.783752	-40.462303
3873.369436	15.656925	188.426651	-40.637638
3873.372764	15.832260	189.595551	-41.222092
3873.376096	16.650496	190.589127	-42.449448
3873.379433	15.949152	191.524246	-42.800117
3873.382762	16.767385	192.634705	-43.384571
3873.386094	17.351839	193.745178	-43.910580
3873.389443	17.351839	195.556976	-45.371712
3873.392761	17.702511	195.907654	-45.839279
3873.396090	17.585621	197.251907	-46.306839
3873.399429	17.410286	198.654587	-46.599068
3873.402757	17.702511	200.174164	-48.177090
3873.406092	17.819403	201.284637	-49.404442
3873.409426	18.053185	202.862656	-49.813560
3873.412767	18.579191	204.265335	-50.398014
3873.416095	18.462301	206.077148	-51.859146
3873.419425	18.462301	207.713608	-52.969608
3873.422781	19.046755	209.642303	-53.612507
3873.426137	19.631210	211.103439	-55.482758
3873.429427	19.455873	213.149033	-57.002335
3873.432776	20.215664	215.662170	-58.405029
3873.436097	20.741671	216.947998	-59.749268
3873.439428	20.975452	219.402679	-62.087082
3873.442763	21.618351	220.980698	-62.788429
3873.446095	22.144360	223.727646	-64.424896
3873.449423	22.728813	226.533020	-66.295151
3873.452760	22.962593	228.753937	-67.814728
3873.456088	23.371712	231.091751	-69.860313
3873.459422	24.189945	233.780243	-72.315018
3873.462752	24.949736	235.767395	-74.711281
3873.466088	24.949736	238.631210	-76.873756
3873.469418	25.767971	241.144348	-78.919350
3873.472756	26.644650	244.066635	-80.497375
3873.476101	27.404442	247.222672	-83.361191
3873.479422	28.281120	249.618942	-85.874344
3873.482751	29.157801	252.774979	-88.913498
3873.486078	29.450027	255.054367	-91.777321
3873.489421	30.618935	257.742859	-94.115135
3873.492751	31.086498	261.249573	-96.862068
3873.496086	32.021622	263.938049	-99.725891
3873.499492	32.547630	266.743439	-102.355934
3873.504023	34.534775	273.289337	-108.784920
3873.507407	35.820572	276.796021	-111.765633
3873.510798	36.814144	280.244324	-114.103447
3873.513678	37.457043	283.283478	-117.902397
3873.517024	37.866158	287.082397	-121.701340
3873.520433	38.684395	290.238464	-124.448273
3873.523684	39.444183	294.212738	-128.831680
3873.526935	40.554646	297.836365	-131.812393
3873.530269	41.022209	300.875519	-136.488022
3873.533606	41.723553	304.557587	-139.994751
3873.536979	42.424896	308.064301	-145.137939
3873.540287	43.418468	312.097015	-150.164230
3873.543687	44.353592	316.889557	-154.430756
3873.547063	45.054939	320.863831	-159.398605
3873.550345	45.464054	324.487457	-164.950912
3873.553603	46.516071	328.987732	-171.029236
3873.556969	47.626534	333.195801	-175.997086
3873.560264	48.795441	337.286957	-182.192291
3873.563631	49.672119	341.728821	-188.445938
3873.566952	51.367035	345.352448	-194.524261
3873.570358	51.834599	350.144958	-200.661026
3873.573660	53.704849	354.645264	-208.317368
3873.576575	54.815311	358.970215	-215.915253
3873.579834	56.042664	363.178284	-222.870255
3873.583164	57.562241	368.029236	-230.818832
3873.586501	59.140266	372.646423	-239.118057
3873.589832	60.367622	377.322052	-247.417313
3873.593176	62.296318	382.465240	-255.248978
3873.596503	64.225014	386.322632	-263.898895
3873.599875	65.569260	390.998260	-272.198120
3873.603183	67.965515	395.147858	-282.309174
3873.606523	69.426651	399.472839	-291.835754
3873.609861	71.706024	403.622467	-301.245453
3873.613219	73.751602	407.888947	-311.824066
3873.616492	75.563416	411.512604	-321.993561
3873.619833	77.609001	415.954437	-331.987701
3873.623155	79.479248	419.285797	-343.735229
3873.626496	81.349503	423.435425	-354.138519
3873.629838	83.278198	426.942139	-366.412048
3873.633162	85.499115	429.981293	-378.042664
3873.636069	87.603149	433.663391	-390.491516
3873.639406	89.473404	436.059631	-403.057251
3873.642762	90.992989	438.923431	-415.447693
3873.646071	92.687897	441.553467	-428.831696
3873.649399	94.441261	444.125092	-441.981842
3873.652736	96.369957	445.878448	-455.190521
3873.656062	98.181763	448.742279	-469.977203
3873.659425	99.584457	449.385193	-484.530090
3873.662735	100.928696	449.443604	-499.141418
3873.666067	102.798943	451.430786	-514.045044
3873.669401	103.850960	451.080048	-529.474548
3873.672732	105.662773	450.670990	-545.664001
3873.676070	107.416130	450.670990	-561.736450
3873.679404	109.286377	449.502075	-578.276489
3873.682736	110.922852	447.748688	-595.342468
3873.686101	112.033318	445.644684	-611.707214
3873.689402	113.494446	442.722382	-629.299255
3873.692732	115.656921	439.858551	-647.183533
3873.696066	116.884277	435.299835	-665.418457
3873.699395	118.462303	431.150208	-683.244324
3873.702730	119.864990	425.773254	-701.654602
3873.706066	121.676796	419.578064	-719.655823
3873.709396	122.787254	412.623047	-738.942749
3873.712732	125.066628	404.966675	-757.469910
3873.716064	126.118645	396.433685	-776.756897
3873.719397	127.988892	387.374634	-795.225647
3873.722733	130.092926	377.964935	-813.752808
3873.726063	131.729401	366.334320	-833.156616
3873.729425	133.248962	355.171265	-851.859131
3873.732727	134.710114	343.248413	-871.438354
3873.736065	136.229691	329.864441	-888.738220
3873.739394	137.515503	316.305084	-907.382263
3873.742724	138.392166	301.985992	-926.552368
3873.746059	139.736420	286.731750	-943.559875
3873.749391	140.028641	270.951508	-960.567505
3873.752726	140.554657	254.995895	-976.932190
3873.756064	141.022217	237.579193	-991.660461
3873.759394	140.905304	220.220932	-1007.674438
3873.762728	141.548218	201.752197	-1021.642944
3873.766060	140.729980	182.991226	-1035.962036
3873.769386	140.145523	163.645828	-1049.287476
3873.772757	139.853302	144.592636	-1062.028687
3873.776059	138.392166	124.428986	-1073.717773
3873.779393	137.340149	104.499123	-1084.822266
3873.782722	135.119232	84.218582	-1094.991821
3873.786057	133.833435	62.593803	-1104.518433
3873.789386	131.554062	42.137932	-1112.174805
3873.792723	128.865570	21.214493	-1120.181763
3873.796049	126.761543	-0.176505	-1125.909424
3873.799398	123.780830	-21.216833	-1129.883667
3873.802724	120.624779	-42.490944	-1134.091797
3873.806049	117.644066	-63.940384	-1136.604980
3873.809386	114.488022	-84.396255	-1138.650513
3873.812723	110.981300	-105.202812	-1139.644043
3873.816096	107.007011	-125.775574	-1138.708862
3873.819385	102.974281	-146.699005	-1136.780273
3873.822731	99.233780	-166.102859	-1134.793091
3873.826047	96.428406	-186.149612	-1128.539551
3873.829384	91.928116	-205.319702	-1122.870239
3873.832715	87.836929	-224.665115	-1116.032227
3873.836053	84.096436	-241.964920	-1108.492676
3873.839387	80.297485	-259.966095	-1098.381714
3873.842713	77.258331	-277.382812	-1087.627686
3873.846050	73.576271	-294.507294	-1076.055542
3873.849383	70.186440	-309.761536	-1064.834106
3873.852719	66.738159	-325.424896	-1051.274780
3873.856047	63.172997	-340.211548	-1035.611328
3873.859404	59.724720	-354.705994	-1020.181824
3873.862716	56.744011	-367.388641	-1003.466431
3873.866049	53.704849	-379.779053	-986.049683
3873.869376	50.256573	-390.825256	-969.509644
3873.872713	47.568089	-401.579163	-951.391663
3873.876049	44.645821	-412.099335	-931.753967
3873.879378	41.665108	-420.749268	-911.999451
3873.882713	38.976620	-428.814728	-892.829346
3873.886046	35.411453	-436.763275	-872.665710
3873.889379	32.080070	-443.426056	-851.742310
3873.892714	29.450027	-448.919952	-831.578613
3873.896043	26.644650	-454.764435	-811.064270
3873.899382	23.430157	-459.206329	-790.199341
3873.902749	20.566334	-464.174164	-770.620117
3873.906047	18.462301	-468.089996	-749.988953
3873.909377	15.540035	-471.129150	-730.643494
3873.912704	13.260664	-472.648743	-711.298096
3873.916038	10.689070	-474.694336	-690.842224
3873.919376	7.708357	-475.395660	-671.438354
3873.922712	5.312098	-476.681458	-652.852722
3873.926038	3.032726	-477.324371	-634.033325
3873.929374	1.162476	-477.149048	-615.447693
3873.932709	-1.876682	-476.739899	-596.511414
3873.936039	-4.682056	-475.804779	-578.451843
3873.939412	-6.961430	-474.577393	-560.567505
3873.943972	-10.877266	-470.953827	-526.844543
3873.947373	-13.039742	-468.382233	-510.070709
3873.950678	-15.026886	-465.810608	-493.238464
3873.954122	-16.429573	-463.122162	-477.107544
3873.957009	-17.890709	-459.440063	-461.444153
3873.960296	-18.708942	-456.284027	-446.073059
3873.963672	-20.754532	-452.718842	-430.234344
3873.966884	-22.449444	-448.861481	-415.564575
3873.970231	-23.326126	-445.062531	-401.362366
3873.973550	-24.144363	-441.088226	-388.036804
3873.976959	-25.137932	-437.523041	-373.600800
3873.980241	-25.488602	-432.262970	-359.924591
3873.983635	-26.248394	-427.938049	-347.125061
3873.986972	-27.008183	-423.846832	-334.500885
3873.990304	-27.826416	-418.645203	-322.402679
3873.993555	-27.709526	-414.729370	-311.064270
3873.996887	-28.001755	-409.995300	-299.316742
3874.000233	-28.995331	-405.202789	-288.270599
3874.003566	-28.644657	-399.767365	-276.523102
3874.006495	-29.229111	-395.559296	-267.756256
3874.009818	-29.872002	-390.591461	-258.171234
3874.013154	-28.878441	-385.682037	-248.820007
3874.016482	-29.696671	-380.480408	-239.702515
3874.019825	-28.819992	-375.512543	-231.052597
3874.023124	-29.170662	-371.187592	-222.636475
3874.026456	-29.579781	-365.752167	-214.980133
3874.029799	-29.638222	-361.602570	-206.973114
3874.033143	-29.521332	-356.693146	-199.258331
3874.036454	-29.579781	-351.666870	-192.011108
3874.039791	-29.930450	-347.458801	-185.289886
3874.043153	-29.872002	-342.198700	-179.620697
3874.046484	-30.456459	-338.049072	-173.191711
3874.049831	-30.514908	-333.841003	-167.230286
3874.053144	-31.216248	-330.100525	-161.268845
3874.056478	-31.333145	-326.301575	-155.891876
3874.059780	-31.333145	-321.918152	-150.748688
3874.062728	-31.216248	-318.002319	-145.547043
3874.066030	-31.917595	-314.144928	-140.812973
3874.069362	-32.034485	-309.995331	-136.488022
3874.072694	-31.859146	-306.371704	-131.111053
3874.076047	-32.268265	-302.280518	-127.195206
3874.079361	-32.794273	-299.007599	-122.052010
3874.082691	-32.677383	-295.091736	-118.779076
3874.086030	-33.086502	-291.585022	-114.571007
3874.089362	-33.378723	-287.727631	-111.122734
3874.092689	-32.852722	-284.571564	-107.557571
3874.096028	-33.086502	-280.772644	-104.050842
3874.099363	-33.261833	-277.791931	-100.251900
3874.102696	-33.320282	-273.817627	-97.329628
3874.106023	-33.261833	-270.836914	-94.173576
3874.109359	-32.852722	-267.096436	-91.309761
3874.112690	-32.735832	-264.232574	-87.919930
3874.116035	-32.969612	-261.719452	-84.530098
3874.119371	-33.261833	-258.680298	-82.016953
3874.122692	-33.028053	-255.699600	-79.211571
3874.126020	-32.618942	-252.485092	-76.932205
3874.129353	-32.268265	-249.913498	-74.302162
3874.132688	-32.502052	-247.283463	-72.139687
3874.136024	-32.092926	-244.945633	-69.217415
3874.139358	-32.385155	-241.964920	-67.464058
3874.142691	-31.274696	-239.744019	-65.769142
3874.146017	-31.391586	-236.938629	-63.489769
3874.149387	-31.216248	-234.893051	-61.327293
3874.152683	-31.333145	-232.263016	-58.989479
3874.156017	-31.216248	-230.217422	-56.885445
3874.159357	-30.573349	-227.938049	-55.891876
3874.162691	-30.105789	-225.191116	-54.196960
3874.166015	-30.281128	-224.139114	-53.028053
3874.169352	-30.748688	-222.502625	-52.209820
3874.172685	-30.398018	-220.807709	-50.047340
3874.176017	-30.164238	-218.645233	-49.053772
3874.179373	-29.872002	-217.125671	-47.767975
3874.182681	-29.521332	-215.839859	-47.534191
3874.186016	-29.346001	-214.320297	-46.073059
3874.189361	-29.755112	-212.508484	-45.021042
3874.192697	-29.521332	-211.281128	-43.735245
3874.196011	-29.696671	-209.878433	-42.624779
3874.199351	-30.164238	-208.008194	-40.929863
3874.202683	-29.988899	-206.547058	-40.462303
3874.206012	-30.281128	-205.611938	-39.877850
3874.209352	-30.281128	-203.858566	-38.475163
3874.212680	-30.924019	-203.274094	-37.949154
3874.216012	-31.274696	-202.222107	-37.072472
3874.219343	-30.398018	-201.111649	-36.312683
3874.222700	-30.924019	-200.001160	-36.137348
3874.226010	-30.631798	-198.715363	-35.786674
3874.229349	-30.690239	-197.955582	-34.734657
3874.232679	-30.807129	-197.078918	-33.507305
3874.236022	-31.040909	-195.851562	-33.273525
3874.239340	-30.865578	-195.150208	-32.922852
3874.242675	-31.040909	-194.507309	-32.455288
3874.246007	-30.982468	-193.572174	-32.046173
3874.249346	-31.274696	-192.987717	-30.701929
3874.252678	-31.391586	-191.994156	-30.585039
3874.256008	-31.566925	-191.760361	-29.825249
3874.259339	-31.274696	-190.708374	-30.409702
3874.262674	-30.865578	-190.065475	-28.948568
3874.266012	-31.040909	-189.422546	-28.890123
3874.269391	-31.333145	-188.954987	-28.714787
3874.272695	-31.508476	-188.312088	-28.071888
3874.276013	-31.333145	-187.902985	-27.838106
3874.279346	-31.274696	-187.727661	-27.896553
3874.282671	-31.274696	-187.435425	-27.487434
3874.286007	-31.742256	-187.435425	-26.844536
3874.289336	-31.625366	-186.909409	-26.844536
3874.292675	-30.865578	-186.734070	-27.078318
3874.296005	-30.807129	-186.324966	-26.552309
3874.299337	-30.807129	-186.500305	-26.961426
3874.302677	-31.040909	-186.675644	-26.143192
3874.306008	-30.807129	-186.208069	-25.967855
3874.309346	-31.274696	-186.208069	-27.136763
3874.312674	-31.391586	-186.324966	-26.260082
3874.316004	-31.976036	-186.850967	-26.493864
3874.319335	-31.274696	-187.143204	-25.675629
3874.322672	-31.917595	-187.610764	-25.850965
3874.326000	-31.917595	-187.260101	-26.260082
3874.329331	-32.385155	-187.610764	-27.838106
3874.332668	-32.502052	-188.195221	-27.370544
3874.336000	-33.554062	-188.662781	-27.253653
3874.339330	-33.261833	-188.954987	-28.188778
3874.342675	-33.670952	-189.305679	-28.597897
3874.346035	-33.846291	-190.007004	-28.656342
3874.349336	-33.963181	-191.234360	-28.305670
3874.352683	-34.606079	-191.994156	-29.591467
3874.355999	-35.190536	-192.227921	-29.825249
3874.359329	-35.599648	-192.461716	-30.701929
3874.362668	-35.541206	-193.455276	-30.760374
